#! FIELDS energy b1.fes
#! SET min_energy -25000
#! SET max_energy -23500
#! SET nbins_energy  1001
#! SET periodic_energy false
 -25000.000000000  155.683279686
 -24998.500000000  155.388746366
 -24997.000000000  155.094318422
 -24995.500000000  154.799057975
 -24994.000000000  154.502204226
 -24992.500000000  154.203153364
 -24991.000000000  153.901440104
 -24989.500000000  153.596720752
 -24988.000000000  153.288757714
 -24986.500000000  152.977405343
 -24985.000000000  152.662597033
 -24983.500000000  152.344333488
 -24982.000000000  152.022672084
 -24980.500000000  151.697717242
 -24979.000000000  151.369611747
 -24977.500000000  151.038528944
 -24976.000000000  150.704665757
 -24974.500000000  150.368236449
 -24973.000000000  150.029467097
 -24971.500000000  149.688590702
 -24970.000000000  149.345842896
 -24968.500000000  149.001458207
 -24967.000000000  148.655666816
 -24965.500000000  148.308691787
 -24964.000000000  147.960746716
 -24962.500000000  147.612033769
 -24961.000000000  147.262742073
 -24959.500000000  146.913046427
 -24958.000000000  146.563106306
 -24956.500000000  146.213065121
 -24955.000000000  145.863049725
 -24953.500000000  145.513170124
 -24952.000000000  145.163519376
 -24950.500000000  144.814173662
 -24949.000000000  144.465192505
 -24947.500000000  144.116619111
 -24946.000000000  143.768480832
 -24944.500000000  143.420789723
 -24943.000000000  143.073543177
 -24941.500000000  142.726724637
 -24940.000000000  142.380304359
 -24938.500000000  142.034240222
 -24937.000000000  141.688478577
 -24935.500000000  141.342955117
 -24934.000000000  140.997595771
 -24932.500000000  140.652317601
 -24931.000000000  140.307029707
 -24929.500000000  139.961634129
 -24928.000000000  139.616026737
 -24926.500000000  139.270098106
 -24925.000000000  138.923734384
 -24923.500000000  138.576818119
 -24922.000000000  138.229229081
 -24920.500000000  137.880845038
 -24919.000000000  137.531542513
 -24917.500000000  137.181197504
 -24916.000000000  136.829686168
 -24914.500000000  136.476885468
 -24913.000000000  136.122673790
 -24911.500000000  135.766931511
 -24910.000000000  135.409541542
 -24908.500000000  135.050389816
 -24907.000000000  134.689365753
 -24905.500000000  134.326362675
 -24904.000000000  133.961278192
 -24902.500000000  133.594014537
 -24901.000000000  133.224478881
 -24899.500000000  132.852583598
 -24898.000000000  132.478246498
 -24896.500000000  132.101391030
 -24895.000000000  131.721946445
 -24893.500000000  131.339847932
 -24892.000000000  130.955036720
 -24890.500000000  130.567460150
 -24889.000000000  130.177071719
 -24887.500000000  129.783831103
 -24886.000000000  129.387704138
 -24884.500000000  128.988662798
 -24883.000000000  128.586685133
 -24881.500000000  128.181755194
 -24880.000000000  127.773862936
 -24878.500000000  127.363004099
 -24877.000000000  126.949180081
 -24875.500000000  126.532397784
 -24874.000000000  126.112669455
 -24872.500000000  125.690012503
 -24871.000000000  125.264449318
 -24869.500000000  124.836007068
 -24868.000000000  124.404717494
 -24866.500000000  123.970616690
 -24865.000000000  123.533744883
 -24863.500000000  123.094146204
 -24862.000000000  122.651868456
 -24860.500000000  122.206962873
 -24859.000000000  121.759483886
 -24857.500000000  121.309488879
 -24856.000000000  120.857037948
 -24854.500000000  120.402193660
 -24853.000000000  119.945020812
 -24851.500000000  119.485586195
 -24850.000000000  119.023958355
 -24848.500000000  118.560207363
 -24847.000000000  118.094404583
 -24845.500000000  117.626622453
 -24844.000000000  117.156934260
 -24842.500000000  116.685413933
 -24841.000000000  116.212135828
 -24839.500000000  115.737174534
 -24838.000000000  115.260604674
 -24836.500000000  114.782500723
 -24835.000000000  114.302936822
 -24833.500000000  113.821986612
 -24832.000000000  113.339723069
 -24830.500000000  112.856218347
 -24829.000000000  112.371543633
 -24827.500000000  111.885769007
 -24826.000000000  111.398963314
 -24824.500000000  110.911194041
 -24823.000000000  110.422527205
 -24821.500000000  109.933027251
 -24820.000000000  109.442756953
 -24818.500000000  108.951777331
 -24817.000000000  108.460147573
 -24815.500000000  107.967924965
 -24814.000000000  107.475164828
 -24812.500000000  106.981920468
 -24811.000000000  106.488243133
 -24809.500000000  105.994181971
 -24808.000000000  105.499784007
 -24806.500000000  105.005094115
 -24805.000000000  104.510155012
 -24803.500000000  104.015007247
 -24802.000000000  103.519689198
 -24800.500000000  103.024237085
 -24799.000000000  102.528684981
 -24797.500000000  102.033064827
 -24796.000000000  101.537406464
 -24794.500000000  101.041737659
 -24793.000000000  100.546084142
 -24791.500000000  100.050469650
 -24790.000000000   99.554915968
 -24788.500000000   99.059442983
 -24787.000000000   98.564068736
 -24785.500000000   98.068809483
 -24784.000000000   97.573679755
 -24782.500000000   97.078692422
 -24781.000000000   96.583858764
 -24779.500000000   96.089188543
 -24778.000000000   95.594690070
 -24776.500000000   95.100370286
 -24775.000000000   94.606234840
 -24773.500000000   94.112288164
 -24772.000000000   93.618533555
 -24770.500000000   93.124973256
 -24769.000000000   92.631608542
 -24767.500000000   92.138439797
 -24766.000000000   91.645466600
 -24764.500000000   91.152687810
 -24763.000000000   90.660101644
 -24761.500000000   90.167705765
 -24760.000000000   89.675497364
 -24758.500000000   89.183473235
 -24757.000000000   88.691629864
 -24755.500000000   88.199963502
 -24754.000000000   87.708470248
 -24752.500000000   87.217146122
 -24751.000000000   86.725987139
 -24749.500000000   86.234989387
 -24748.000000000   85.744149095
 -24746.500000000   85.253462699
 -24745.000000000   84.762926916
 -24743.500000000   84.272538803
 -24742.000000000   83.782295822
 -24740.500000000   83.292195896
 -24739.000000000   82.802237470
 -24737.500000000   82.312419566
 -24736.000000000   81.822741828
 -24734.500000000   81.333204577
 -24733.000000000   80.843808857
 -24731.500000000   80.354556471
 -24730.000000000   79.865450029
 -24728.500000000   79.376492981
 -24727.000000000   78.887689651
 -24725.500000000   78.399045269
 -24724.000000000   77.910565995
 -24722.500000000   77.422258951
 -24721.000000000   76.934132236
 -24719.500000000   76.446194948
 -24718.000000000   75.958457198
 -24716.500000000   75.470930124
 -24715.000000000   74.983625901
 -24713.500000000   74.496557744
 -24712.000000000   74.009739920
 -24710.500000000   73.523187738
 -24709.000000000   73.036917558
 -24707.500000000   72.550946779
 -24706.000000000   72.065293836
 -24704.500000000   71.579978189
 -24703.000000000   71.095020310
 -24701.500000000   70.610441671
 -24700.000000000   70.126264723
 -24698.500000000   69.642512880
 -24697.000000000   69.159210497
 -24695.500000000   68.676382845
 -24694.000000000   68.194056087
 -24692.500000000   67.712257248
 -24691.000000000   67.231014188
 -24689.500000000   66.750355570
 -24688.000000000   66.270310827
 -24686.500000000   65.790910129
 -24685.000000000   65.312184342
 -24683.500000000   64.834164999
 -24682.000000000   64.356884255
 -24680.500000000   63.880374850
 -24679.000000000   63.404670068
 -24677.500000000   62.929803694
 -24676.000000000   62.455809974
 -24674.500000000   61.982723572
 -24673.000000000   61.510579522
 -24671.500000000   61.039413189
 -24670.000000000   60.569260218
 -24668.500000000   60.100156496
 -24667.000000000   59.632138100
 -24665.500000000   59.165241257
 -24664.000000000   58.699502292
 -24662.500000000   58.234957589
 -24661.000000000   57.771643540
 -24659.500000000   57.309596503
 -24658.000000000   56.848852757
 -24656.500000000   56.389448452
 -24655.000000000   55.931419574
 -24653.500000000   55.474801893
 -24652.000000000   55.019630924
 -24650.500000000   54.565941883
 -24649.000000000   54.113769648
 -24647.500000000   53.663148713
 -24646.000000000   53.214113153
 -24644.500000000   52.766696585
 -24643.000000000   52.320932124
 -24641.500000000   51.876852355
 -24640.000000000   51.434489289
 -24638.500000000   50.993874333
 -24637.000000000   50.555038256
 -24635.500000000   50.118011157
 -24634.000000000   49.682822431
 -24632.500000000   49.249500746
 -24631.000000000   48.818074008
 -24629.500000000   48.388569338
 -24628.000000000   47.961013047
 -24626.500000000   47.535430612
 -24625.000000000   47.111846652
 -24623.500000000   46.690284910
 -24622.000000000   46.270768230
 -24620.500000000   45.853318544
 -24619.000000000   45.437956853
 -24617.500000000   45.024703214
 -24616.000000000   44.613576725
 -24614.500000000   44.204595516
 -24613.000000000   43.797776739
 -24611.500000000   43.393136556
 -24610.000000000   42.990690138
 -24608.500000000   42.590451659
 -24607.000000000   42.192434286
 -24605.500000000   41.796650187
 -24604.000000000   41.403110523
 -24602.500000000   41.011825452
 -24601.000000000   40.622804130
 -24599.500000000   40.236054720
 -24598.000000000   39.851584389
 -24596.500000000   39.469399323
 -24595.000000000   39.089504729
 -24593.500000000   38.711904850
 -24592.000000000   38.336602972
 -24590.500000000   37.963601437
 -24589.000000000   37.592901657
 -24587.500000000   37.224504129
 -24586.000000000   36.858408452
 -24584.500000000   36.494613338
 -24583.000000000   36.133116638
 -24581.500000000   35.773915357
 -24580.000000000   35.417005673
 -24578.500000000   35.062382960
 -24577.000000000   34.710041811
 -24575.500000000   34.359976057
 -24574.000000000   34.012178796
 -24572.500000000   33.666642411
 -24571.000000000   33.323358600
 -24569.500000000   32.982318400
 -24568.000000000   32.643512215
 -24566.500000000   32.306929839
 -24565.000000000   31.972560489
 -24563.500000000   31.640392827
 -24562.000000000   31.310414995
 -24560.500000000   30.982614638
 -24559.000000000   30.656978935
 -24557.500000000   30.333494630
 -24556.000000000   30.012148059
 -24554.500000000   29.692925181
 -24553.000000000   29.375811610
 -24551.500000000   29.060792640
 -24550.000000000   28.747853279
 -24548.500000000   28.436978277
 -24547.000000000   28.128152156
 -24545.500000000   27.821359242
 -24544.000000000   27.516583691
 -24542.500000000   27.213809520
 -24541.000000000   26.913020637
 -24539.500000000   26.614200870
 -24538.000000000   26.317333992
 -24536.500000000   26.022403752
 -24535.000000000   25.729393905
 -24533.500000000   25.438288233
 -24532.000000000   25.149070578
 -24530.500000000   24.861724863
 -24529.000000000   24.576235122
 -24527.500000000   24.292585523
 -24526.000000000   24.010760391
 -24524.500000000   23.730744236
 -24523.000000000   23.452521771
 -24521.500000000   23.176077939
 -24520.000000000   22.901397932
 -24518.500000000   22.628467211
 -24517.000000000   22.357271529
 -24515.500000000   22.087796949
 -24514.000000000   21.820029861
 -24512.500000000   21.553957004
 -24511.000000000   21.289565476
 -24509.500000000   21.026842756
 -24508.000000000   20.765776715
 -24506.500000000   20.506355634
 -24505.000000000   20.248568212
 -24503.500000000   19.992403585
 -24502.000000000   19.737851329
 -24500.500000000   19.484901478
 -24499.000000000   19.233544530
 -24497.500000000   18.983771454
 -24496.000000000   18.735573701
 -24494.500000000   18.488943209
 -24493.000000000   18.243872408
 -24491.500000000   18.000354225
 -24490.000000000   17.758382088
 -24488.500000000   17.517949932
 -24487.000000000   17.279052193
 -24485.500000000   17.041683818
 -24484.000000000   16.805840258
 -24482.500000000   16.571517473
 -24481.000000000   16.338711926
 -24479.500000000   16.107420581
 -24478.000000000   15.877640903
 -24476.500000000   15.649370849
 -24475.000000000   15.422608867
 -24473.500000000   15.197353887
 -24472.000000000   14.973605317
 -24470.500000000   14.751363033
 -24469.000000000   14.530627373
 -24467.500000000   14.311399127
 -24466.000000000   14.093679528
 -24464.500000000   13.877470240
 -24463.000000000   13.662773349
 -24461.500000000   13.449591353
 -24460.000000000   13.237927145
 -24458.500000000   13.027784004
 -24457.000000000   12.819165581
 -24455.500000000   12.612075884
 -24454.000000000   12.406519266
 -24452.500000000   12.202500408
 -24451.000000000   12.000024305
 -24449.500000000   11.799096250
 -24448.000000000   11.599721818
 -24446.500000000   11.401906850
 -24445.000000000   11.205657438
 -24443.500000000   11.010979904
 -24442.000000000   10.817880786
 -24440.500000000   10.626366819
 -24439.000000000   10.436444921
 -24437.500000000   10.248122170
 -24436.000000000   10.061405789
 -24434.500000000    9.876303129
 -24433.000000000    9.692821648
 -24431.500000000    9.510968897
 -24430.000000000    9.330752497
 -24428.500000000    9.152180126
 -24427.000000000    8.975259496
 -24425.500000000    8.799998339
 -24424.000000000    8.626404388
 -24422.500000000    8.454485359
 -24421.000000000    8.284248933
 -24419.500000000    8.115702739
 -24418.000000000    7.948854339
 -24416.500000000    7.783711207
 -24415.000000000    7.620280717
 -24413.500000000    7.458570122
 -24412.000000000    7.298586542
 -24410.500000000    7.140336947
 -24409.000000000    6.983828140
 -24407.500000000    6.829066746
 -24406.000000000    6.676059193
 -24404.500000000    6.524811701
 -24403.000000000    6.375330267
 -24401.500000000    6.227620655
 -24400.000000000    6.081688376
 -24398.500000000    5.937538686
 -24397.000000000    5.795176566
 -24395.500000000    5.654606714
 -24394.000000000    5.515833535
 -24392.500000000    5.378861130
 -24391.000000000    5.243693289
 -24389.500000000    5.110333478
 -24388.000000000    4.978784834
 -24386.500000000    4.849050156
 -24385.000000000    4.721131900
 -24383.500000000    4.595032169
 -24382.000000000    4.470752711
 -24380.500000000    4.348294911
 -24379.000000000    4.227659790
 -24377.500000000    4.108847996
 -24376.000000000    3.991859807
 -24374.500000000    3.876695122
 -24373.000000000    3.763353466
 -24371.500000000    3.651833981
 -24370.000000000    3.542135433
 -24368.500000000    3.434256207
 -24367.000000000    3.328194311
 -24365.500000000    3.223947372
 -24364.000000000    3.121512645
 -24362.500000000    3.020887011
 -24361.000000000    2.922066981
 -24359.500000000    2.825048700
 -24358.000000000    2.729827951
 -24356.500000000    2.636400161
 -24355.000000000    2.544760407
 -24353.500000000    2.454903418
 -24352.000000000    2.366823588
 -24350.500000000    2.280514976
 -24349.000000000    2.195971322
 -24347.500000000    2.113186046
 -24346.000000000    2.032152266
 -24344.500000000    1.952862799
 -24343.000000000    1.875310177
 -24341.500000000    1.799486652
 -24340.000000000    1.725384209
 -24338.500000000    1.652994580
 -24337.000000000    1.582309248
 -24335.500000000    1.513319465
 -24334.000000000    1.446016261
 -24332.500000000    1.380390458
 -24331.000000000    1.316432680
 -24329.500000000    1.254133369
 -24328.000000000    1.193482798
 -24326.500000000    1.134471080
 -24325.000000000    1.077088188
 -24323.500000000    1.021323965
 -24322.000000000    0.967168137
 -24320.500000000    0.914610332
 -24319.000000000    0.863640089
 -24317.500000000    0.814246876
 -24316.000000000    0.766420102
 -24314.500000000    0.720149133
 -24313.000000000    0.675423308
 -24311.500000000    0.632231948
 -24310.000000000    0.590564379
 -24308.500000000    0.550409938
 -24307.000000000    0.511757993
 -24305.500000000    0.474597957
 -24304.000000000    0.438919298
 -24302.500000000    0.404711558
 -24301.000000000    0.371964365
 -24299.500000000    0.340667447
 -24298.000000000    0.310810645
 -24296.500000000    0.282383927
 -24295.000000000    0.255377402
 -24293.500000000    0.229781331
 -24292.000000000    0.205586141
 -24290.500000000    0.182782438
 -24289.000000000    0.161361015
 -24287.500000000    0.141312871
 -24286.000000000    0.122629215
 -24284.500000000    0.105301480
 -24283.000000000    0.089321335
 -24281.500000000    0.074680694
 -24280.000000000    0.061371723
 -24278.500000000    0.049386855
 -24277.000000000    0.038718793
 -24275.500000000    0.029360522
 -24274.000000000    0.021305316
 -24272.500000000    0.014546747
 -24271.000000000    0.009078688
 -24269.500000000    0.004895323
 -24268.000000000    0.001991152
 -24266.500000000    0.000360995
 -24265.000000000    0.000000000
 -24263.500000000    0.000903643
 -24262.000000000    0.003067735
 -24260.500000000    0.006488426
 -24259.000000000    0.011162203
 -24257.500000000    0.017085898
 -24256.000000000    0.024256683
 -24254.500000000    0.032672079
 -24253.000000000    0.042329948
 -24251.500000000    0.053228499
 -24250.000000000    0.065366284
 -24248.500000000    0.078742198
 -24247.000000000    0.093355476
 -24245.500000000    0.109205694
 -24244.000000000    0.126292759
 -24242.500000000    0.144616913
 -24241.000000000    0.164178726
 -24239.500000000    0.184979088
 -24238.000000000    0.207019209
 -24236.500000000    0.230300611
 -24235.000000000    0.254825122
 -24233.500000000    0.280594867
 -24232.000000000    0.307612267
 -24230.500000000    0.335880023
 -24229.000000000    0.365401114
 -24227.500000000    0.396178787
 -24226.000000000    0.428216546
 -24224.500000000    0.461518145
 -24223.000000000    0.496087576
 -24221.500000000    0.531929058
 -24220.000000000    0.569047031
 -24218.500000000    0.607446140
 -24217.000000000    0.647131226
 -24215.500000000    0.688107311
 -24214.000000000    0.730379592
 -24212.500000000    0.773953422
 -24211.000000000    0.818834302
 -24209.500000000    0.865027867
 -24208.000000000    0.912539872
 -24206.500000000    0.961376177
 -24205.000000000    1.011542738
 -24203.500000000    1.063045589
 -24202.000000000    1.115890833
 -24200.500000000    1.170084621
 -24199.000000000    1.225633144
 -24197.500000000    1.282542617
 -24196.000000000    1.340819264
 -24194.500000000    1.400469304
 -24193.000000000    1.461498938
 -24191.500000000    1.523914334
 -24190.000000000    1.587721611
 -24188.500000000    1.652926828
 -24187.000000000    1.719535969
 -24185.500000000    1.787554926
 -24184.000000000    1.856989492
 -24182.500000000    1.927845339
 -24181.000000000    2.000128011
 -24179.500000000    2.073842907
 -24178.000000000    2.148995272
 -24176.500000000    2.225590179
 -24175.000000000    2.303632519
 -24173.500000000    2.383126992
 -24172.000000000    2.464078088
 -24170.500000000    2.546490081
 -24169.000000000    2.630367018
 -24167.500000000    2.715712703
 -24166.000000000    2.802530691
 -24164.500000000    2.890824278
 -24163.000000000    2.980596489
 -24161.500000000    3.071850069
 -24160.000000000    3.164587478
 -24158.500000000    3.258810877
 -24157.000000000    3.354522125
 -24155.500000000    3.451722770
 -24154.000000000    3.550414040
 -24152.500000000    3.650596844
 -24151.000000000    3.752271756
 -24149.500000000    3.855439020
 -24148.000000000    3.960098539
 -24146.500000000    4.066249874
 -24145.000000000    4.173892239
 -24143.500000000    4.283024501
 -24142.000000000    4.393645175
 -24140.500000000    4.505752424
 -24139.000000000    4.619344059
 -24137.500000000    4.734417537
 -24136.000000000    4.850969963
 -24134.500000000    4.968998089
 -24133.000000000    5.088498320
 -24131.500000000    5.209466711
 -24130.000000000    5.331898974
 -24128.500000000    5.455790481
 -24127.000000000    5.581136265
 -24125.500000000    5.707931032
 -24124.000000000    5.836169157
 -24122.500000000    5.965844700
 -24121.000000000    6.096951406
 -24119.500000000    6.229482713
 -24118.000000000    6.363431766
 -24116.500000000    6.498791417
 -24115.000000000    6.635554241
 -24113.500000000    6.773712542
 -24112.000000000    6.913258366
 -24110.500000000    7.054183509
 -24109.000000000    7.196479531
 -24107.500000000    7.340137766
 -24106.000000000    7.485149336
 -24104.500000000    7.631505163
 -24103.000000000    7.779195981
 -24101.500000000    7.928212354
 -24100.000000000    8.078544686
 -24098.500000000    8.230183237
