#! FIELDS energy b1.fes
#! SET min_energy -25000
#! SET max_energy -23500
#! SET nbins_energy  1001
#! SET periodic_energy false
 -25000.000000000  155.849500779
 -24998.500000000  155.546093947
 -24997.000000000  155.244819168
 -24995.500000000  154.944487350
 -24994.000000000  154.644108842
 -24992.500000000  154.342871812
 -24991.000000000  154.040122351
 -24989.500000000  153.735346180
 -24988.000000000  153.428151873
 -24986.500000000  153.118255484
 -24985.000000000  152.805466506
 -24983.500000000  152.489675055
 -24982.000000000  152.170840214
 -24980.500000000  151.848979450
 -24979.000000000  151.524159030
 -24977.500000000  151.196485374
 -24976.000000000  150.866097273
 -24974.500000000  150.533158909
 -24973.000000000  150.197853621
 -24971.500000000  149.860378369
 -24970.000000000  149.520938825
 -24968.500000000  149.179745060
 -24967.000000000  148.837007771
 -24965.500000000  148.492935013
 -24964.000000000  148.147729379
 -24962.500000000  147.801585609
 -24961.000000000  147.454688580
 -24959.500000000  147.107211642
 -24958.000000000  146.759315281
 -24956.500000000  146.411146060
 -24955.000000000  146.062835829
 -24953.500000000  145.714501166
 -24952.000000000  145.366243030
 -24950.500000000  145.018146604
 -24949.000000000  144.670281299
 -24947.500000000  144.322700915
 -24946.000000000  143.975443926
 -24944.500000000  143.628533877
 -24943.000000000  143.281979886
 -24941.500000000  142.935777221
 -24940.000000000  142.589907952
 -24938.500000000  142.244341661
 -24937.000000000  141.899036199
 -24935.500000000  141.553938478
 -24934.000000000  141.208985295
 -24932.500000000  140.864104170
 -24931.000000000  140.519214202
 -24929.500000000  140.174226921
 -24928.000000000  139.829047154
 -24926.500000000  139.483573861
 -24925.000000000  139.137700986
 -24923.500000000  138.791318267
 -24922.000000000  138.444312044
 -24920.500000000  138.096566033
 -24919.000000000  137.747962079
 -24917.500000000  137.398380875
 -24916.000000000  137.047702656
 -24914.500000000  136.695807855
 -24913.000000000  136.342577728
 -24911.500000000  135.987894943
 -24910.000000000  135.631644128
 -24908.500000000  135.273712392
 -24907.000000000  134.913989799
 -24905.500000000  134.552369813
 -24904.000000000  134.188749699
 -24902.500000000  133.823030892
 -24901.000000000  133.455119327
 -24899.500000000  133.084925736
 -24898.000000000  132.712365906
 -24896.500000000  132.337360907
 -24895.000000000  131.959837282
 -24893.500000000  131.579727212
 -24892.000000000  131.196968640
 -24890.500000000  130.811505373
 -24889.000000000  130.423287154
 -24887.500000000  130.032269701
 -24886.000000000  129.638414726
 -24884.500000000  129.241689930
 -24883.000000000  128.842068964
 -24881.500000000  128.439531382
 -24880.000000000  128.034062562
 -24878.500000000  127.625653616
 -24877.000000000  127.214301273
 -24875.500000000  126.800007756
 -24874.000000000  126.382780632
 -24872.500000000  125.962632659
 -24871.000000000  125.539581612
 -24869.500000000  125.113650102
 -24868.000000000  124.684865383
 -24866.500000000  124.253259150
 -24865.000000000  123.818867333
 -24863.500000000  123.381729876
 -24862.000000000  122.941890519
 -24860.500000000  122.499396571
 -24859.000000000  122.054298680
 -24857.500000000  121.606650605
 -24856.000000000  121.156508974
 -24854.500000000  120.703933059
 -24853.000000000  120.248984537
 -24851.500000000  119.791727257
 -24850.000000000  119.332227011
 -24848.500000000  118.870551305
 -24847.000000000  118.406769130
 -24845.500000000  117.940950745
 -24844.000000000  117.473167456
 -24842.500000000  117.003491406
 -24841.000000000  116.531995364
 -24839.500000000  116.058752529
 -24838.000000000  115.583836330
 -24836.500000000  115.107320240
 -24835.000000000  114.629277595
 -24833.500000000  114.149781418
 -24832.000000000  113.668904253
 -24830.500000000  113.186718008
 -24829.000000000  112.703293800
 -24827.500000000  112.218701818
 -24826.000000000  111.733011182
 -24824.500000000  111.246289821
 -24823.000000000  110.758604353
 -24821.500000000  110.270019979
 -24820.000000000  109.780600377
 -24818.500000000  109.290407613
 -24817.000000000  108.799502056
 -24815.500000000  108.307942300
 -24814.000000000  107.815785102
 -24812.500000000  107.323085315
 -24811.000000000  106.829895844
 -24809.500000000  106.336267595
 -24808.000000000  105.842249447
 -24806.500000000  105.347888215
 -24805.000000000  104.853228636
 -24803.500000000  104.358313353
 -24802.000000000  103.863182907
 -24800.500000000  103.367875735
 -24799.000000000  102.872428180
 -24797.500000000  102.376874502
 -24796.000000000  101.881246895
 -24794.500000000  101.385575512
 -24793.000000000  100.889888494
 -24791.500000000  100.394212003
 -24790.000000000   99.898570267
 -24788.500000000   99.402985616
 -24787.000000000   98.907478536
 -24785.500000000   98.412067720
 -24784.000000000   97.916770124
 -24782.500000000   97.421601025
 -24781.000000000   96.926574087
 -24779.500000000   96.431701423
 -24778.000000000   95.936993665
 -24776.500000000   95.442460039
 -24775.000000000   94.948108427
 -24773.500000000   94.453945454
 -24772.000000000   93.959976556
 -24770.500000000   93.466206059
 -24769.000000000   92.972637260
 -24767.500000000   92.479272503
 -24766.000000000   91.986113263
 -24764.500000000   91.493160221
 -24763.000000000   91.000413350
 -24761.500000000   90.507871989
 -24760.000000000   90.015534928
 -24758.500000000   89.523400486
 -24757.000000000   89.031466589
 -24755.500000000   88.539730845
 -24754.000000000   88.048190628
 -24752.500000000   87.556843144
 -24751.000000000   87.065685512
 -24749.500000000   86.574714834
 -24748.000000000   86.083928265
 -24746.500000000   85.593323081
 -24745.000000000   85.102896748
 -24743.500000000   84.612646984
 -24742.000000000   84.122571824
 -24740.500000000   83.632669676
 -24739.000000000   83.142939384
 -24737.500000000   82.653380277
 -24736.000000000   82.163992227
 -24734.500000000   81.674775694
 -24733.000000000   81.185731776
 -24731.500000000   80.696862252
 -24730.000000000   80.208169623
 -24728.500000000   79.719657153
 -24727.000000000   79.231328899
 -24725.500000000   78.743189752
 -24724.000000000   78.255245458
 -24722.500000000   77.767502651
 -24721.000000000   77.279968875
 -24719.500000000   76.792652604
 -24718.000000000   76.305563260
 -24716.500000000   75.818711230
 -24715.000000000   75.332107877
 -24713.500000000   74.845765547
 -24712.000000000   74.359697581
 -24710.500000000   73.873918313
 -24709.000000000   73.388443076
 -24707.500000000   72.903288195
 -24706.000000000   72.418470989
 -24704.500000000   71.934009758
 -24703.000000000   71.449923777
 -24701.500000000   70.966233286
 -24700.000000000   70.482959471
 -24698.500000000   70.000124451
 -24697.000000000   69.517751258
 -24695.500000000   69.035863818
 -24694.000000000   68.554486927
 -24692.500000000   68.073646225
 -24691.000000000   67.593368172
 -24689.500000000   67.113680018
 -24688.000000000   66.634609772
 -24686.500000000   66.156186175
 -24685.000000000   65.678438659
 -24683.500000000   65.201397321
 -24682.000000000   64.725092881
 -24680.500000000   64.249556648
 -24679.000000000   63.774820480
 -24677.500000000   63.300916748
 -24676.000000000   62.827878292
 -24674.500000000   62.355738383
 -24673.000000000   61.884530678
 -24671.500000000   61.414289185
 -24670.000000000   60.945048210
 -24668.500000000   60.476842323
 -24667.000000000   60.009706310
 -24665.500000000   59.543675130
 -24664.000000000   59.078783871
 -24662.500000000   58.615067707
 -24661.000000000   58.152561853
 -24659.500000000   57.691301523
 -24658.000000000   57.231321883
 -24656.500000000   56.772658012
 -24655.000000000   56.315344856
 -24653.500000000   55.859417188
 -24652.000000000   55.404909561
 -24650.500000000   54.951856275
 -24649.000000000   54.500291329
 -24647.500000000   54.050248384
 -24646.000000000   53.601760724
 -24644.500000000   53.154861216
 -24643.000000000   52.709582276
 -24641.500000000   52.265955829
 -24640.000000000   51.824013277
 -24638.500000000   51.383785461
 -24637.000000000   50.945302630
 -24635.500000000   50.508594412
 -24634.000000000   50.073689777
 -24632.500000000   49.640617012
 -24631.000000000   49.209403693
 -24629.500000000   48.780076657
 -24628.000000000   48.352661974
 -24626.500000000   47.927184928
 -24625.000000000   47.503669994
 -24623.500000000   47.082140811
 -24622.000000000   46.662620170
 -24620.500000000   46.245129989
 -24619.000000000   45.829691303
 -24617.500000000   45.416324243
 -24616.000000000   45.005048026
 -24614.500000000   44.595880942
 -24613.000000000   44.188840341
 -24611.500000000   43.783942628
 -24610.000000000   43.381203254
 -24608.500000000   42.980636707
 -24607.000000000   42.582256513
 -24605.500000000   42.186075226
 -24604.000000000   41.792104433
 -24602.500000000   41.400354751
 -24601.000000000   41.010835828
 -24599.500000000   40.623556346
 -24598.000000000   40.238524026
 -24596.500000000   39.855745631
 -24595.000000000   39.475226979
 -24593.500000000   39.096972942
 -24592.000000000   38.720987465
 -24590.500000000   38.347273569
 -24589.000000000   37.975833370
 -24587.500000000   37.606668084
 -24586.000000000   37.239778051
 -24584.500000000   36.875162742
 -24583.000000000   36.512820779
 -24581.500000000   36.152749956
 -24580.000000000   35.794947249
 -24578.500000000   35.439408847
 -24577.000000000   35.086130160
 -24575.500000000   34.735105851
 -24574.000000000   34.386329852
 -24572.500000000   34.039795389
 -24571.000000000   33.695495006
 -24569.500000000   33.353420587
 -24568.000000000   33.013563385
 -24566.500000000   32.675914043
 -24565.000000000   32.340462623
 -24563.500000000   32.007198634
 -24562.000000000   31.676111055
 -24560.500000000   31.347188365
 -24559.000000000   31.020418569
 -24557.500000000   30.695789229
 -24556.000000000   30.373287490
 -24554.500000000   30.052900109
 -24553.000000000   29.734613485
 -24551.500000000   29.418413684
 -24550.000000000   29.104286472
 -24548.500000000   28.792217343
 -24547.000000000   28.482191545
 -24545.500000000   28.174194113
 -24544.000000000   27.868209893
 -24542.500000000   27.564223576
 -24541.000000000   27.262219719
 -24539.500000000   26.962182780
 -24538.000000000   26.664097141
 -24536.500000000   26.367947138
 -24535.000000000   26.073717087
 -24533.500000000   25.781391310
 -24532.000000000   25.490954161
 -24530.500000000   25.202390055
 -24529.000000000   24.915683486
 -24527.500000000   24.630819060
 -24526.000000000   24.347781514
 -24524.500000000   24.066555738
 -24523.000000000   23.787126803
 -24521.500000000   23.509479979
 -24520.000000000   23.233600757
 -24518.500000000   22.959474872
 -24517.000000000   22.687088318
 -24515.500000000   22.416427375
 -24514.000000000   22.147478617
 -24512.500000000   21.880228941
 -24511.000000000   21.614665574
 -24509.500000000   21.350776094
 -24508.000000000   21.088548446
 -24506.500000000   20.827970951
 -24505.000000000   20.569032326
 -24503.500000000   20.311721690
 -24502.000000000   20.056028580
 -24500.500000000   19.801942962
 -24499.000000000   19.549455237
 -24497.500000000   19.298556252
 -24496.000000000   19.049237309
 -24494.500000000   18.801490171
 -24493.000000000   18.555307067
 -24491.500000000   18.310680700
 -24490.000000000   18.067604247
 -24488.500000000   17.826071369
 -24487.000000000   17.586076205
 -24485.500000000   17.347613383
 -24484.000000000   17.110678013
 -24482.500000000   16.875265690
 -24481.000000000   16.641372495
 -24479.500000000   16.408994988
 -24478.000000000   16.178130212
 -24476.500000000   15.948775683
 -24475.000000000   15.720929390
 -24473.500000000   15.494589790
 -24472.000000000   15.269755799
 -24470.500000000   15.046426788
 -24469.000000000   14.824602575
 -24467.500000000   14.604283418
 -24466.000000000   14.385470004
 -24464.500000000   14.168163441
 -24463.000000000   13.952365249
 -24461.500000000   13.738077347
 -24460.000000000   13.525302046
 -24458.500000000   13.314042031
 -24457.000000000   13.104300355
 -24455.500000000   12.896080420
 -24454.000000000   12.689385971
 -24452.500000000   12.484221074
 -24451.000000000   12.280590109
 -24449.500000000   12.078497752
 -24448.000000000   11.877948959
 -24446.500000000   11.678948952
 -24445.000000000   11.481503206
 -24443.500000000   11.285617426
 -24442.000000000   11.091297539
 -24440.500000000   10.898549671
 -24439.000000000   10.707380136
 -24437.500000000   10.517795413
 -24436.000000000   10.329802135
 -24434.500000000   10.143407068
 -24433.000000000    9.958617094
 -24431.500000000    9.775439197
 -24430.000000000    9.593880442
 -24428.500000000    9.413947959
 -24427.000000000    9.235648929
 -24425.500000000    9.058990561
 -24424.000000000    8.883980079
 -24422.500000000    8.710624705
 -24421.000000000    8.538931638
 -24419.500000000    8.368908045
 -24418.000000000    8.200561038
 -24416.500000000    8.033897659
 -24415.000000000    7.868924866
 -24413.500000000    7.705649518
 -24412.000000000    7.544078354
 -24410.500000000    7.384217986
 -24409.000000000    7.226074876
 -24407.500000000    7.069655330
 -24406.000000000    6.914965477
 -24404.500000000    6.762011257
 -24403.000000000    6.610798412
 -24401.500000000    6.461332469
 -24400.000000000    6.313618727
 -24398.500000000    6.167662249
 -24397.000000000    6.023467849
 -24395.500000000    5.881040081
 -24394.000000000    5.740383226
 -24392.500000000    5.601501288
 -24391.000000000    5.464397980
 -24389.500000000    5.329076717
 -24388.000000000    5.195540610
 -24386.500000000    5.063792453
 -24385.000000000    4.933834723
 -24383.500000000    4.805669566
 -24382.000000000    4.679298800
 -24380.500000000    4.554723902
 -24379.000000000    4.431946008
 -24377.500000000    4.310965907
 -24376.000000000    4.191784039
 -24374.500000000    4.074400492
 -24373.000000000    3.958814999
 -24371.500000000    3.845026939
 -24370.000000000    3.733035333
 -24368.500000000    3.622838844
 -24367.000000000    3.514435782
 -24365.500000000    3.407824100
 -24364.000000000    3.303001395
 -24362.500000000    3.199964917
 -24361.000000000    3.098711563
 -24359.500000000    2.999237887
 -24358.000000000    2.901540101
 -24356.500000000    2.805614080
 -24355.000000000    2.711455367
 -24353.500000000    2.619059178
 -24352.000000000    2.528420411
 -24350.500000000    2.439533648
 -24349.000000000    2.352393167
 -24347.500000000    2.266992944
 -24346.000000000    2.183326668
 -24344.500000000    2.101387744
 -24343.000000000    2.021169304
 -24341.500000000    1.942664218
 -24340.000000000    1.865865099
 -24338.500000000    1.790764321
 -24337.000000000    1.717354022
 -24335.500000000    1.645626120
 -24334.000000000    1.575572320
 -24332.500000000    1.507184132
 -24331.000000000    1.440452875
 -24329.500000000    1.375369697
 -24328.000000000    1.311925582
 -24326.500000000    1.250111364
 -24325.000000000    1.189917741
 -24323.500000000    1.131335288
 -24322.000000000    1.074354469
 -24320.500000000    1.018965652
 -24319.000000000    0.965159122
 -24317.500000000    0.912925092
 -24316.000000000    0.862253723
 -24314.500000000    0.813135130
 -24313.000000000    0.765559402
 -24311.500000000    0.719516615
 -24310.000000000    0.674996840
 -24308.500000000    0.631990166
 -24307.000000000    0.590486706
 -24305.500000000    0.550476614
 -24304.000000000    0.511950099
 -24302.500000000    0.474897436
 -24301.000000000    0.439308984
 -24299.500000000    0.405175192
 -24298.000000000    0.372486620
 -24296.500000000    0.341233944
 -24295.000000000    0.311407974
 -24293.500000000    0.282999666
 -24292.000000000    0.256000129
 -24290.500000000    0.230400643
 -24289.000000000    0.206192667
 -24287.500000000    0.183367851
 -24286.000000000    0.161918045
 -24284.500000000    0.141835312
 -24283.000000000    0.123111938
 -24281.500000000    0.105740439
 -24280.000000000    0.089713572
 -24278.500000000    0.075024345
 -24277.000000000    0.061666022
 -24275.500000000    0.049632136
 -24274.000000000    0.038916491
 -24272.500000000    0.029513172
 -24271.000000000    0.021416552
 -24269.500000000    0.014621298
 -24268.000000000    0.009122374
 -24266.500000000    0.004915048
 -24265.000000000    0.001994898
 -24263.500000000    0.000357814
 -24262.000000000    0.000000000
 -24260.500000000    0.000917982
 -24259.000000000    0.003108605
 -24257.500000000    0.006569039
 -24256.000000000    0.011296778
 -24254.500000000    0.017289641
 -24253.000000000    0.024545772
 -24251.500000000    0.033063644
 -24250.000000000    0.042842050
 -24248.500000000    0.053880109
 -24247.000000000    0.066177260
 -24245.500000000    0.079733262
 -24244.000000000    0.094548189
 -24242.500000000    0.110622427
 -24241.000000000    0.127956671
 -24239.500000000    0.146551919
 -24238.000000000    0.166409467
 -24236.500000000    0.187530906
 -24235.000000000    0.209918112
 -24233.500000000    0.233573241
 -24232.000000000    0.258498723
 -24230.500000000    0.284697254
 -24229.000000000    0.312171787
 -24227.500000000    0.340925523
 -24226.000000000    0.370961906
 -24224.500000000    0.402284610
 -24223.000000000    0.434897530
 -24221.500000000    0.468804772
 -24220.000000000    0.504010645
 -24218.500000000    0.540519646
 -24217.000000000    0.578336453
 -24215.500000000    0.617465910
 -24214.000000000    0.657913018
 -24212.500000000    0.699682923
 -24211.000000000    0.742780900
 -24209.500000000    0.787212347
 -24208.000000000    0.832982765
 -24206.500000000    0.880097751
 -24205.000000000    0.928562982
 -24203.500000000    0.978384203
 -24202.000000000    1.029567210
 -24200.500000000    1.082117844
 -24199.000000000    1.136041969
 -24197.500000000    1.191345465
 -24196.000000000    1.248034209
 -24194.500000000    1.306114065
 -24193.000000000    1.365590871
 -24191.500000000    1.426470419
 -24190.000000000    1.488758449
 -24188.500000000    1.552460631
 -24187.000000000    1.617582552
 -24185.500000000    1.684129704
 -24184.000000000    1.752107470
 -24182.500000000    1.821521110
 -24181.000000000    1.892375748
 -24179.500000000    1.964676361
 -24178.000000000    2.038427766
 -24176.500000000    2.113634607
 -24175.000000000    2.190301343
 -24173.500000000    2.268432235
 -24172.000000000    2.348031339
 -24170.500000000    2.429102490
 -24169.000000000    2.511649295
 -24167.500000000    2.595675118
 -24166.000000000    2.681183076
 -24164.500000000    2.768176025
 -24163.000000000    2.856656552
 -24161.500000000    2.946626967
 -24160.000000000    3.038089296
 -24158.500000000    3.131045267
 -24157.000000000    3.225496312
 -24155.500000000    3.321443552
 -24154.000000000    3.418887797
 -24152.500000000    3.517829535
 -24151.000000000    3.618268931
 -24149.500000000    3.720205819
 -24148.000000000    3.823639701
 -24146.500000000    3.928569741
 -24145.000000000    4.034994764
 -24143.500000000    4.142913252
 -24142.000000000    4.252323343
 -24140.500000000    4.363222832
 -24139.000000000    4.475609165
 -24137.500000000    4.589479445
 -24136.000000000    4.704830431
 -24134.500000000    4.821658536
 -24133.000000000    4.939959835
 -24131.500000000    5.059730061
 -24130.000000000    5.180964614
 -24128.500000000    5.303658562
 -24127.000000000    5.427806645
 -24125.500000000    5.553403282
 -24124.000000000    5.680442576
 -24122.500000000    5.808918319
 -24121.000000000    5.938824001
 -24119.500000000    6.070152817
 -24118.000000000    6.202897673
 -24116.500000000    6.337051198
 -24115.000000000    6.472605752
 -24113.500000000    6.609553435
 -24112.000000000    6.747886096
 -24110.500000000    6.887595349
 -24109.000000000    7.028672580
 -24107.500000000    7.171108960
 -24106.000000000    7.314895457
 -24104.500000000    7.460022851
 -24103.000000000    7.606481743
 -24101.500000000    7.754262575
 -24100.000000000    7.903355638
 -24098.500000000    8.053751091
