#! FIELDS energy b1.fes
#! SET min_energy -25000
#! SET max_energy -23500
#! SET nbins_energy  1001
#! SET periodic_energy false
 -25000.000000000  156.135079209
 -24998.500000000  155.738926023
 -24997.000000000  155.361873543
 -24995.500000000  155.000931071
 -24994.000000000  154.653429656
 -24992.500000000  154.316995642
 -24991.000000000  153.989525940
 -24989.500000000  153.669164943
 -24988.000000000  153.354282990
 -24986.500000000  153.043456288
 -24985.000000000  152.735448226
 -24983.500000000  152.429191985
 -24982.000000000  152.123774387
 -24980.500000000  151.818420908
 -24979.000000000  151.512481777
 -24977.500000000  151.205419121
 -24976.000000000  150.896795066
 -24974.500000000  150.586260762
 -24973.000000000  150.273546268
 -24971.500000000  149.958451230
 -24970.000000000  149.640836336
 -24968.500000000  149.320615461
 -24967.000000000  148.997748492
 -24965.500000000  148.672234766
 -24964.000000000  148.344107096
 -24962.500000000  148.013426340
 -24961.000000000  147.680276470
 -24959.500000000  147.344760129
 -24958.000000000  147.006994617
 -24956.500000000  146.667108290
 -24955.000000000  146.325237340
 -24953.500000000  145.981522936
 -24952.000000000  145.636108676
 -24950.500000000  145.289138361
 -24949.000000000  144.940754034
 -24947.500000000  144.591094286
 -24946.000000000  144.240292797
 -24944.500000000  143.888477091
 -24943.000000000  143.535767502
 -24941.500000000  143.182276310
 -24940.000000000  142.828107053
 -24938.500000000  142.473353989
 -24937.000000000  142.118101692
 -24935.500000000  141.762424781
 -24934.000000000  141.406387754
 -24932.500000000  141.050044922
 -24931.000000000  140.693440442
 -24929.500000000  140.336608425
 -24928.000000000  139.979573107
 -24926.500000000  139.622349100
 -24925.000000000  139.264941680
 -24923.500000000  138.907347132
 -24922.000000000  138.549553129
 -24920.500000000  138.191539152
 -24919.000000000  137.833276926
 -24917.500000000  137.474730893
 -24916.000000000  137.115858688
 -24914.500000000  136.756611637
 -24913.000000000  136.396935261
 -24911.500000000  136.036769785
 -24910.000000000  135.676050648
 -24908.500000000  135.314709012
 -24907.000000000  134.952672267
 -24905.500000000  134.589864529
 -24904.000000000  134.226207128
 -24902.500000000  133.861619089
 -24901.000000000  133.496017593
 -24899.500000000  133.129318430
 -24898.000000000  132.761436436
 -24896.500000000  132.392285912
 -24895.000000000  132.021781024
 -24893.500000000  131.649836189
 -24892.000000000  131.276366435
 -24890.500000000  130.901287752
 -24889.000000000  130.524517416
 -24887.500000000  130.145974292
 -24886.000000000  129.765579123
 -24884.500000000  129.383254793
 -24883.000000000  128.998926576
 -24881.500000000  128.612522359
 -24880.000000000  128.223972851
 -24878.500000000  127.833211768
 -24877.000000000  127.440176004
 -24875.500000000  127.044805778
 -24874.000000000  126.647044768
 -24872.500000000  126.246840223
 -24871.000000000  125.844143063
 -24869.500000000  125.438907960
 -24868.000000000  125.031093400
 -24866.500000000  124.620661734
 -24865.000000000  124.207579218
 -24863.500000000  123.791816026
 -24862.000000000  123.373346267
 -24860.500000000  122.952147973
 -24859.000000000  122.528203089
 -24857.500000000  122.101497441
 -24856.000000000  121.672020699
 -24854.500000000  121.239766331
 -24853.000000000  120.804731543
 -24851.500000000  120.366917215
 -24850.000000000  119.926327826
 -24848.500000000  119.482971375
 -24847.000000000  119.036859289
 -24845.500000000  118.588006334
 -24844.000000000  118.136430513
 -24842.500000000  117.682152963
 -24841.000000000  117.225197844
 -24839.500000000  116.765592229
 -24838.000000000  116.303365990
 -24836.500000000  115.838551674
 -24835.000000000  115.371184388
 -24833.500000000  114.901301673
 -24832.000000000  114.428943382
 -24830.500000000  113.954151553
 -24829.000000000  113.476970288
 -24827.500000000  112.997445623
 -24826.000000000  112.515625404
 -24824.500000000  112.031559163
 -24823.000000000  111.545297994
 -24821.500000000  111.056894432
 -24820.000000000  110.566402328
 -24818.500000000  110.073876732
 -24817.000000000  109.579373778
 -24815.500000000  109.082950563
 -24814.000000000  108.584665041
 -24812.500000000  108.084575907
 -24811.000000000  107.582742496
 -24809.500000000  107.079224670
 -24808.000000000  106.574082728
 -24806.500000000  106.067377298
 -24805.000000000  105.559169250
 -24803.500000000  105.049519598
 -24802.000000000  104.538489420
 -24800.500000000  104.026139767
 -24799.000000000  103.512531589
 -24797.500000000  102.997725653
 -24796.000000000  102.481782475
 -24794.500000000  101.964762245
 -24793.000000000  101.446724768
 -24791.500000000  100.927729400
 -24790.000000000  100.407834987
 -24788.500000000   99.887099815
 -24787.000000000   99.365581560
 -24785.500000000   98.843337236
 -24784.000000000   98.320423157
 -24782.500000000   97.796894896
 -24781.000000000   97.272807249
 -24779.500000000   96.748214197
 -24778.000000000   96.223168888
 -24776.500000000   95.697723598
 -24775.000000000   95.171929717
 -24773.500000000   94.645837726
 -24772.000000000   94.119497179
 -24770.500000000   93.592956691
 -24769.000000000   93.066263925
 -24767.500000000   92.539465585
 -24766.000000000   92.012607410
 -24764.500000000   91.485734168
 -24763.000000000   90.958889658
 -24761.500000000   90.432116710
 -24760.000000000   89.905457188
 -24758.500000000   89.378951997
 -24757.000000000   88.852641085
 -24755.500000000   88.326563460
 -24754.000000000   87.800757196
 -24752.500000000   87.275259445
 -24751.000000000   86.750106453
 -24749.500000000   86.225333574
 -24748.000000000   85.700975288
 -24746.500000000   85.177065217
 -24745.000000000   84.653636145
 -24743.500000000   84.130720036
 -24742.000000000   83.608348057
 -24740.500000000   83.086550598
 -24739.000000000   82.565357296
 -24737.500000000   82.044797052
 -24736.000000000   81.524898062
 -24734.500000000   81.005687834
 -24733.000000000   80.487193215
 -24731.500000000   79.969440415
 -24730.000000000   79.452455029
 -24728.500000000   78.936262063
 -24727.000000000   78.420885959
 -24725.500000000   77.906350617
 -24724.000000000   77.392679419
 -24722.500000000   76.879895257
 -24721.000000000   76.368020549
 -24719.500000000   75.857077270
 -24718.000000000   75.347086969
 -24716.500000000   74.838070794
 -24715.000000000   74.330049515
 -24713.500000000   73.823043542
 -24712.000000000   73.317072947
 -24710.500000000   72.812157488
 -24709.000000000   72.308316623
 -24707.500000000   71.805569530
 -24706.000000000   71.303935129
 -24704.500000000   70.803432096
 -24703.000000000   70.304078878
 -24701.500000000   69.805893714
 -24700.000000000   69.308894648
 -24698.500000000   68.813099538
 -24697.000000000   68.318526080
 -24695.500000000   67.825191811
 -24694.000000000   67.333114125
 -24692.500000000   66.842310285
 -24691.000000000   66.352797429
 -24689.500000000   65.864592585
 -24688.000000000   65.377712674
 -24686.500000000   64.892174521
 -24685.000000000   64.407994859
 -24683.500000000   63.925190339
 -24682.000000000   63.443777531
 -24680.500000000   62.963772931
 -24679.000000000   62.485192962
 -24677.500000000   62.008053979
 -24676.000000000   61.532372272
 -24674.500000000   61.058164063
 -24673.000000000   60.585445510
 -24671.500000000   60.114232707
 -24670.000000000   59.644541681
 -24668.500000000   59.176388393
 -24667.000000000   58.709788733
 -24665.500000000   58.244758521
 -24664.000000000   57.781313499
 -24662.500000000   57.319469333
 -24661.000000000   56.859241604
 -24659.500000000   56.400645805
 -24658.000000000   55.943697334
 -24656.500000000   55.488411494
 -24655.000000000   55.034803478
 -24653.500000000   54.582888370
 -24652.000000000   54.132681136
 -24650.500000000   53.684196613
 -24649.000000000   53.237449509
 -24647.500000000   52.792454387
 -24646.000000000   52.349225664
 -24644.500000000   51.907777599
 -24643.000000000   51.468124286
 -24641.500000000   51.030279645
 -24640.000000000   50.594257415
 -24638.500000000   50.160071143
 -24637.000000000   49.727734176
 -24635.500000000   49.297259654
 -24634.000000000   48.868660500
 -24632.500000000   48.441949411
 -24631.000000000   48.017138849
 -24629.500000000   47.594241034
 -24628.000000000   47.173267935
 -24626.500000000   46.754231260
 -24625.000000000   46.337142451
 -24623.500000000   45.922012673
 -24622.000000000   45.508852806
 -24620.500000000   45.097673443
 -24619.000000000   44.688484873
 -24617.500000000   44.281297082
 -24616.000000000   43.876119742
 -24614.500000000   43.472962208
 -24613.000000000   43.071833506
 -24611.500000000   42.672742332
 -24610.000000000   42.275697045
 -24608.500000000   41.880705660
 -24607.000000000   41.487775845
 -24605.500000000   41.096914916
 -24604.000000000   40.708129831
 -24602.500000000   40.321427189
 -24601.000000000   39.936813224
 -24599.500000000   39.554293804
 -24598.000000000   39.173874428
 -24596.500000000   38.795560220
 -24595.000000000   38.419355932
 -24593.500000000   38.045265942
 -24592.000000000   37.673294250
 -24590.500000000   37.303444479
 -24589.000000000   36.935719876
 -24587.500000000   36.570123311
 -24586.000000000   36.206657278
 -24584.500000000   35.845323894
 -24583.000000000   35.486124905
 -24581.500000000   35.129061684
 -24580.000000000   34.774135236
 -24578.500000000   34.421346197
 -24577.000000000   34.070694842
 -24575.500000000   33.722181085
 -24574.000000000   33.375804483
 -24572.500000000   33.031564244
 -24571.000000000   32.689459225
 -24569.500000000   32.349487944
 -24568.000000000   32.011648581
 -24566.500000000   31.675938986
 -24565.000000000   31.342356682
 -24563.500000000   31.010898875
 -24562.000000000   30.681562458
 -24560.500000000   30.354344020
 -24559.000000000   30.029239852
 -24557.500000000   29.706245952
 -24556.000000000   29.385358040
 -24554.500000000   29.066571557
 -24553.000000000   28.749881682
 -24551.500000000   28.435283331
 -24550.000000000   28.122771176
 -24548.500000000   27.812339644
 -24547.000000000   27.503982935
 -24545.500000000   27.197695022
 -24544.000000000   26.893469670
 -24542.500000000   26.591300437
 -24541.000000000   26.291180688
 -24539.500000000   25.993103605
 -24538.000000000   25.697062194
 -24536.500000000   25.403049297
 -24535.000000000   25.111057601
 -24533.500000000   24.821079649
 -24532.000000000   24.533107847
 -24530.500000000   24.247134478
 -24529.000000000   23.963151708
 -24527.500000000   23.681151601
 -24526.000000000   23.401126121
 -24524.500000000   23.123067152
 -24523.000000000   22.846966498
 -24521.500000000   22.572815899
 -24520.000000000   22.300607038
 -24518.500000000   22.030331552
 -24517.000000000   21.761981039
 -24515.500000000   21.495547072
 -24514.000000000   21.231021202
 -24512.500000000   20.968394971
 -24511.000000000   20.707659921
 -24509.500000000   20.448807599
 -24508.000000000   20.191829572
 -24506.500000000   19.936717428
 -24505.000000000   19.683462788
 -24503.500000000   19.432057316
 -24502.000000000   19.182492721
 -24500.500000000   18.934760769
 -24499.000000000   18.688853288
 -24497.500000000   18.444762179
 -24496.000000000   18.202479414
 -24494.500000000   17.961997053
 -24493.000000000   17.723307243
 -24491.500000000   17.486402227
 -24490.000000000   17.251274348
 -24488.500000000   17.017916056
 -24487.000000000   16.786319913
 -24485.500000000   16.556478597
 -24484.000000000   16.328384907
 -24482.500000000   16.102031767
 -24481.000000000   15.877412231
 -24479.500000000   15.654519486
 -24478.000000000   15.433346855
 -24476.500000000   15.213887801
 -24475.000000000   14.996135929
 -24473.500000000   14.780084991
 -24472.000000000   14.565728883
 -24470.500000000   14.353061653
 -24469.000000000   14.142077500
 -24467.500000000   13.932770774
 -24466.000000000   13.725135979
 -24464.500000000   13.519167774
 -24463.000000000   13.314860972
 -24461.500000000   13.112210544
 -24460.000000000   12.911211613
 -24458.500000000   12.711859459
 -24457.000000000   12.514149516
 -24455.500000000   12.318077372
 -24454.000000000   12.123638769
 -24452.500000000   11.930829599
 -24451.000000000   11.739645906
 -24449.500000000   11.550083882
 -24448.000000000   11.362139863
 -24446.500000000   11.175810335
 -24445.000000000   10.991091921
 -24443.500000000   10.807981386
 -24442.000000000   10.626475633
 -24440.500000000   10.446571697
 -24439.000000000   10.268266744
 -24437.500000000   10.091558071
 -24436.000000000    9.916443094
 -24434.500000000    9.742919354
 -24433.000000000    9.570984507
 -24431.500000000    9.400636324
 -24430.000000000    9.231872682
 -24428.500000000    9.064691567
 -24427.000000000    8.899091064
 -24425.500000000    8.735069353
 -24424.000000000    8.572624711
 -24422.500000000    8.411755498
 -24421.000000000    8.252460160
 -24419.500000000    8.094737222
 -24418.000000000    7.938585282
 -24416.500000000    7.784003008
 -24415.000000000    7.630989134
 -24413.500000000    7.479542453
 -24412.000000000    7.329661813
 -24410.500000000    7.181346114
 -24409.000000000    7.034594301
 -24407.500000000    6.889405360
 -24406.000000000    6.745778316
 -24404.500000000    6.603712222
 -24403.000000000    6.463206163
 -24401.500000000    6.324259243
 -24400.000000000    6.186870586
 -24398.500000000    6.051039329
 -24397.000000000    5.916764619
 -24395.500000000    5.784045609
 -24394.000000000    5.652881451
 -24392.500000000    5.523271295
 -24391.000000000    5.395214284
 -24389.500000000    5.268709550
 -24388.000000000    5.143756209
 -24386.500000000    5.020353359
 -24385.000000000    4.898500076
 -24383.500000000    4.778195411
 -24382.000000000    4.659438384
 -24380.500000000    4.542227987
 -24379.000000000    4.426563172
 -24377.500000000    4.312442857
 -24376.000000000    4.199865918
 -24374.500000000    4.088831187
 -24373.000000000    3.979337452
 -24371.500000000    3.871383452
 -24370.000000000    3.764967877
 -24368.500000000    3.660089366
 -24367.000000000    3.556746501
 -24365.500000000    3.454937813
 -24364.000000000    3.354661775
 -24362.500000000    3.255916802
 -24361.000000000    3.158701250
 -24359.500000000    3.063013417
 -24358.000000000    2.968851539
 -24356.500000000    2.876213793
 -24355.000000000    2.785098294
 -24353.500000000    2.695503094
 -24352.000000000    2.607426187
 -24350.500000000    2.520865504
 -24349.000000000    2.435818916
 -24347.500000000    2.352284232
 -24346.000000000    2.270259204
 -24344.500000000    2.189741523
 -24343.000000000    2.110728825
 -24341.500000000    2.033218686
 -24340.000000000    1.957208629
 -24338.500000000    1.882696123
 -24337.000000000    1.809678585
 -24335.500000000    1.738153380
 -24334.000000000    1.668117826
 -24332.500000000    1.599569194
 -24331.000000000    1.532504710
 -24329.500000000    1.466921560
 -24328.000000000    1.402816886
 -24326.500000000    1.340187798
 -24325.000000000    1.279031367
 -24323.500000000    1.219344635
 -24322.000000000    1.161124612
 -24320.500000000    1.104368285
 -24319.000000000    1.049072615
 -24317.500000000    0.995234544
 -24316.000000000    0.942850997
 -24314.500000000    0.891918884
 -24313.000000000    0.842435105
 -24311.500000000    0.794396553
 -24310.000000000    0.747800116
 -24308.500000000    0.702642681
 -24307.000000000    0.658921140
 -24305.500000000    0.616632388
 -24304.000000000    0.575773331
 -24302.500000000    0.536340888
 -24301.000000000    0.498331994
 -24299.500000000    0.461743603
 -24298.000000000    0.426572695
 -24296.500000000    0.392816275
 -24295.000000000    0.360471375
 -24293.500000000    0.329535066
 -24292.000000000    0.300004452
 -24290.500000000    0.271876677
 -24289.000000000    0.245148930
 -24287.500000000    0.219818445
 -24286.000000000    0.195882505
 -24284.500000000    0.173338447
 -24283.000000000    0.152183660
 -24281.500000000    0.132415596
 -24280.000000000    0.114031763
 -24278.500000000    0.097029736
 -24277.000000000    0.081407154
 -24275.500000000    0.067161725
 -24274.000000000    0.054291230
 -24272.500000000    0.042793519
 -24271.000000000    0.032666520
 -24269.500000000    0.023908238
 -24268.000000000    0.016516757
 -24266.500000000    0.010490239
 -24265.000000000    0.005826932
 -24263.500000000    0.002525166
 -24262.000000000    0.000583355
 -24260.500000000    0.000000000
 -24259.000000000    0.000773689
 -24257.500000000    0.002903098
 -24256.000000000    0.006386990
 -24254.500000000    0.011224219
 -24253.000000000    0.017413728
 -24251.500000000    0.024954546
 -24250.000000000    0.033845797
 -24248.500000000    0.044086690
 -24247.000000000    0.055676524
 -24245.500000000    0.068614689
 -24244.000000000    0.082900658
 -24242.500000000    0.098533995
 -24241.000000000    0.115514348
 -24239.500000000    0.133841451
 -24238.000000000    0.153515121
 -24236.500000000    0.174535256
 -24235.000000000    0.196901836
 -24233.500000000    0.220614918
 -24232.000000000    0.245674637
 -24230.500000000    0.272081201
 -24229.000000000    0.299834892
 -24227.500000000    0.328936059
 -24226.000000000    0.359385122
 -24224.500000000    0.391182561
 -24223.000000000    0.424328922
 -24221.500000000    0.458824806
 -24220.000000000    0.494670872
 -24218.500000000    0.531867829
 -24217.000000000    0.570416437
 -24215.500000000    0.610317500
 -24214.000000000    0.651571865
 -24212.500000000    0.694180416
 -24211.000000000    0.738144072
 -24209.500000000    0.783463782
 -24208.000000000    0.830140522
 -24206.500000000    0.878175289
 -24205.000000000    0.927569100
 -24203.500000000    0.978322985
 -24202.000000000    1.030437985
 -24200.500000000    1.083915144
 -24199.000000000    1.138755509
 -24197.500000000    1.194960124
 -24196.000000000    1.252530024
 -24194.500000000    1.311466233
 -24193.000000000    1.371769756
 -24191.500000000    1.433441580
 -24190.000000000    1.496482664
 -24188.500000000    1.560893938
 -24187.000000000    1.626676296
 -24185.500000000    1.693830594
 -24184.000000000    1.762357645
 -24182.500000000    1.832258212
 -24181.000000000    1.903533008
 -24179.500000000    1.976182687
 -24178.000000000    2.050207844
 -24176.500000000    2.125609010
 -24175.000000000    2.202386643
 -24173.500000000    2.280541132
 -24172.000000000    2.360072787
 -24170.500000000    2.440981837
 -24169.000000000    2.523268427
 -24167.500000000    2.606932614
 -24166.000000000    2.691974363
 -24164.500000000    2.778393545
 -24163.000000000    2.866189931
 -24161.500000000    2.955363192
 -24160.000000000    3.045912894
 -24158.500000000    3.137838498
 -24157.000000000    3.231139352
 -24155.500000000    3.325814696
 -24154.000000000    3.421863652
 -24152.500000000    3.519285227
 -24151.000000000    3.618078312
 -24149.500000000    3.718241673
 -24148.000000000    3.819773960
 -24146.500000000    3.922673695
 -24145.000000000    4.026939280
 -24143.500000000    4.132568988
 -24142.000000000    4.239560971
 -24140.500000000    4.347913251
 -24139.000000000    4.457623725
 -24137.500000000    4.568690163
 -24136.000000000    4.681110209
 -24134.500000000    4.794881380
 -24133.000000000    4.910001069
 -24131.500000000    5.026466543
 -24130.000000000    5.144274946
 -24128.500000000    5.263423299
 -24127.000000000    5.383908503
 -24125.500000000    5.505727338
 -24124.000000000    5.628876471
 -24122.500000000    5.753352448
 -24121.000000000    5.879151707
 -24119.500000000    6.006270575
 -24118.000000000    6.134705270
 -24116.500000000    6.264451908
 -24115.000000000    6.395506503
 -24113.500000000    6.527864972
 -24112.000000000    6.661523137
 -24110.500000000    6.796476733
 -24109.000000000    6.932721407
 -24107.500000000    7.070252726
 -24106.000000000    7.209066179
 -24104.500000000    7.349157183
 -24103.000000000    7.490521088
 -24101.500000000    7.633153181
 -24100.000000000    7.777048693
 -24098.500000000    7.922202801
