#! FIELDS energy b1.bias der_energy
#! SET min_energy -25000
#! SET max_energy -23500
#! SET nbins_energy  1001
#! SET periodic_energy false
 -25000.000000000 -102.489464278   -0.266475794
 -24998.500000000 -102.100322992   -0.252788922
 -24997.000000000 -101.729940144   -0.241417634
 -24995.500000000 -101.375047217   -0.232092882
 -24994.000000000 -101.032761257   -0.224569348
 -24992.500000000 -100.700550529   -0.218623787
 -24991.000000000 -100.376202591   -0.214053470
 -24989.500000000 -100.057794635   -0.210674710
 -24988.000000000  -99.743665969   -0.208321479
 -24986.500000000  -99.432392521   -0.206844104
 -24985.000000000  -99.122763236   -0.206108037
 -24983.500000000  -98.813758256   -0.205992707
 -24982.000000000  -98.504528784   -0.206390433
 -24980.500000000  -98.194378515   -0.207205407
 -24979.000000000  -97.882746551   -0.208352741
 -24977.500000000  -97.569191696   -0.209757574
 -24976.000000000  -97.253378054   -0.211354235
 -24974.500000000  -96.935061837   -0.213085457
 -24973.000000000  -96.614079315   -0.214901646
 -24971.500000000  -96.290335821   -0.216760201
 -24970.000000000  -95.963795752   -0.218624869
 -24968.500000000  -95.634473489   -0.220465160
 -24967.000000000  -95.302425185   -0.222255783
 -24965.500000000  -94.967741344   -0.223976140
 -24964.000000000  -94.630540153   -0.225609846
 -24962.500000000  -94.290961497   -0.227144282
 -24961.000000000  -93.949161619   -0.228570190
 -24959.500000000  -93.605308373   -0.229881290
 -24958.000000000  -93.259577018   -0.231073929
 -24956.500000000  -92.912146523   -0.232146761
 -24955.000000000  -92.563196339   -0.233100444
 -24953.500000000  -92.212903592   -0.233937374
 -24952.000000000  -91.861440677   -0.234661427
 -24950.500000000  -91.508973203   -0.235277734
 -24949.000000000  -91.155658275   -0.235792471
 -24947.500000000  -90.801643071   -0.236212668
 -24946.000000000  -90.447063693   -0.236546037
 -24944.500000000  -90.092044264   -0.236800811
 -24943.000000000  -89.736696252   -0.236985610
 -24941.500000000  -89.381117988   -0.237109308
 -24940.000000000  -89.025394372   -0.237180922
 -24938.500000000  -88.669596735   -0.237209510
 -24937.000000000  -88.313782849   -0.237204081
 -24935.500000000  -87.957997057   -0.237173517
 -24934.000000000  -87.602270520   -0.237126502
 -24932.500000000  -87.246621558   -0.237071464
 -24931.000000000  -86.891056076   -0.237016521
 -24929.500000000  -86.535568058   -0.236969440
 -24928.000000000  -86.180140129   -0.236937598
 -24926.500000000  -85.824744157   -0.236927954
 -24925.000000000  -85.469341904   -0.236947022
 -24923.500000000  -85.113885700   -0.237000857
 -24922.000000000  -84.758319151   -0.237095038
 -24920.500000000  -84.402577858   -0.237234659
 -24919.000000000  -84.046590143   -0.237424327
 -24917.500000000  -83.690277785   -0.237668160
 -24916.000000000  -83.333556757   -0.237969787
 -24914.500000000  -82.976337946   -0.238332355
 -24913.000000000  -82.618527876   -0.238758539
 -24911.500000000  -82.260029410   -0.239250547
 -24910.000000000  -81.900742436   -0.239810139
 -24908.500000000  -81.540564532   -0.240438637
 -24907.000000000  -81.179391617   -0.241136939
 -24905.500000000  -80.817118561   -0.241905540
 -24904.000000000  -80.453639786   -0.242744550
 -24902.500000000  -80.088849831   -0.243653709
 -24901.000000000  -79.722643883   -0.244632410
 -24899.500000000  -79.354918291   -0.245679719
 -24898.000000000  -78.985571037   -0.246794395
 -24896.500000000  -78.614502182   -0.247974910
 -24895.000000000  -78.241614281   -0.249219470
 -24893.500000000  -77.866812764   -0.250526039
 -24892.000000000  -77.490006287   -0.251892356
 -24890.500000000  -77.111107050   -0.253315958
 -24889.000000000  -76.730031089   -0.254794200
 -24887.500000000  -76.346698532   -0.256324273
 -24886.000000000  -75.961033827   -0.257903228
 -24884.500000000  -75.572965944   -0.259527989
 -24883.000000000  -75.182428546   -0.261195377
 -24881.500000000  -74.789360132   -0.262902126
 -24880.000000000  -74.393704156   -0.264644899
 -24878.500000000  -73.995409118   -0.266420305
 -24877.000000000  -73.594428636   -0.268224918
 -24875.500000000  -73.190721485   -0.270055288
 -24874.000000000  -72.784251624   -0.271907956
 -24872.500000000  -72.374988194   -0.273779471
 -24871.000000000  -71.962905504   -0.275666401
 -24869.500000000  -71.547982987   -0.277565342
 -24868.000000000  -71.130205152   -0.279472936
 -24866.500000000  -70.709561507   -0.281385876
 -24865.000000000  -70.286046475   -0.283300917
 -24863.500000000  -69.859659293   -0.285214888
 -24862.000000000  -69.430403895   -0.287124696
 -24860.500000000  -68.998288789   -0.289027339
 -24859.000000000  -68.563326917   -0.290919907
 -24857.500000000  -68.125535511   -0.292799591
 -24856.000000000  -67.684935937   -0.294663691
 -24854.500000000  -67.241553529   -0.296509615
 -24853.000000000  -66.795417420   -0.298334889
 -24851.500000000  -66.346560368   -0.300137157
 -24850.000000000  -65.895018572   -0.301914185
 -24848.500000000  -65.440831490   -0.303663864
 -24847.000000000  -64.984041648   -0.305384211
 -24845.500000000  -64.524694454   -0.307073370
 -24844.000000000  -64.062838000   -0.308729613
 -24842.500000000  -63.598522874   -0.310351342
 -24841.000000000  -63.131801968   -0.311937086
 -24839.500000000  -62.662730281   -0.313485504
 -24838.000000000  -62.191364731   -0.314995377
 -24836.500000000  -61.717763967   -0.316465618
 -24835.000000000  -61.241988180   -0.317895257
 -24833.500000000  -60.764098920   -0.319283451
 -24832.000000000  -60.284158914   -0.320629473
 -24830.500000000  -59.802231894   -0.321932713
 -24829.000000000  -59.318382417   -0.323192674
 -24827.500000000  -58.832675704   -0.324408972
 -24826.000000000  -58.345177475   -0.325581326
 -24824.500000000  -57.855953787   -0.326709561
 -24823.000000000  -57.365070891   -0.327793600
 -24821.500000000  -56.872595077   -0.328833463
 -24820.000000000  -56.378592538   -0.329829259
 -24818.500000000  -55.883129235   -0.330781187
 -24817.000000000  -55.386270771   -0.331689528
 -24815.500000000  -54.888082266   -0.332554641
 -24814.000000000  -54.388628246   -0.333376960
 -24812.500000000  -53.887972534   -0.334156987
 -24811.000000000  -53.386178148   -0.334895292
 -24809.500000000  -52.883307207   -0.335592503
 -24808.000000000  -52.379420844   -0.336249307
 -24806.500000000  -51.874579123   -0.336866439
 -24805.000000000  -51.368840969   -0.337444686
 -24803.500000000  -50.862264095   -0.337984874
 -24802.000000000  -50.354904945   -0.338487868
 -24800.500000000  -49.846818637   -0.338954570
 -24799.000000000  -49.338058918   -0.339385907
 -24797.500000000  -48.828678119   -0.339782837
 -24796.000000000  -48.318727121   -0.340146337
 -24794.500000000  -47.808255326   -0.340477401
 -24793.000000000  -47.297310633   -0.340777038
 -24791.500000000  -46.785939416   -0.341046268
 -24790.000000000  -46.274186519   -0.341286116
 -24788.500000000  -45.762095243   -0.341497612
 -24787.000000000  -45.249707346   -0.341681783
 -24785.500000000  -44.737063045   -0.341839654
 -24784.000000000  -44.224201025   -0.341972244
 -24782.500000000  -43.711158450   -0.342080561
 -24781.000000000  -43.197970979   -0.342165602
 -24779.500000000  -42.684672790   -0.342228348
 -24778.000000000  -42.171296599   -0.342269763
 -24776.500000000  -41.657873693   -0.342290791
 -24775.000000000  -41.144433958   -0.342292353
 -24773.500000000  -40.631005918   -0.342275347
 -24772.000000000  -40.117616766   -0.342240644
 -24770.500000000  -39.604292410   -0.342189089
 -24769.000000000  -39.091057517   -0.342121495
 -24767.500000000  -38.577935551   -0.342038646
 -24766.000000000  -38.064948829   -0.341941294
 -24764.500000000  -37.552118563   -0.341830154
 -24763.000000000  -37.039464917   -0.341705912
 -24761.500000000  -36.527007053   -0.341569216
 -24760.000000000  -36.014763190   -0.341420676
 -24758.500000000  -35.502750658   -0.341260869
 -24757.000000000  -34.990985947   -0.341090333
 -24755.500000000  -34.479484772   -0.340909568
 -24754.000000000  -33.968262124   -0.340719038
 -24752.500000000  -33.457332328   -0.340519168
 -24751.000000000  -32.946709097   -0.340310344
 -24749.500000000  -32.436405597   -0.340092917
 -24748.000000000  -31.926434492   -0.339867198
 -24746.500000000  -31.416808010   -0.339633463
 -24745.000000000  -30.907537992   -0.339391949
 -24743.500000000  -30.398635950   -0.339142859
 -24742.000000000  -29.890113121   -0.338886358
 -24740.500000000  -29.381980516   -0.338622578
 -24739.000000000  -28.874248977   -0.338351616
 -24737.500000000  -28.366929226   -0.338073536
 -24736.000000000  -27.860031911   -0.337788370
 -24734.500000000  -27.353567657   -0.337496118
 -24733.000000000  -26.847547113   -0.337196750
 -24731.500000000  -26.341980995   -0.336890206
 -24730.000000000  -25.836880128   -0.336576398
 -24728.500000000  -25.332255488   -0.336255214
 -24727.000000000  -24.828118243   -0.335926513
 -24725.500000000  -24.324479789   -0.335590131
 -24724.000000000  -23.821351783   -0.335245882
 -24722.500000000  -23.318746181   -0.334893556
 -24721.000000000  -22.816675267   -0.334532925
 -24719.500000000  -22.315151681   -0.334163743
 -24718.000000000  -21.814188447   -0.333785743
 -24716.500000000  -21.313799000   -0.333398646
 -24715.000000000  -20.813997205   -0.333002157
 -24713.500000000  -20.314797380   -0.332595966
 -24712.000000000  -19.816214316   -0.332179756
 -24710.500000000  -19.318263287   -0.331753196
 -24709.000000000  -18.820960071   -0.331315948
 -24707.500000000  -18.324320960   -0.330867666
 -24706.000000000  -17.828362764   -0.330408000
 -24704.500000000  -17.333102829   -0.329936594
 -24703.000000000  -16.838559031   -0.329453089
 -24701.500000000  -16.344749790   -0.328957126
 -24700.000000000  -15.851694063   -0.328448344
 -24698.500000000  -15.359411347   -0.327926384
 -24697.000000000  -14.867921678   -0.327390890
 -24695.500000000  -14.377245622   -0.326841508
 -24694.000000000  -13.887404272   -0.326277891
 -24692.500000000  -13.398419239   -0.325699696
 -24691.000000000  -12.910312640   -0.325106589
 -24689.500000000  -12.423107091   -0.324498244
 -24688.000000000  -11.936825688   -0.323874343
 -24686.500000000  -11.451491994   -0.323234580
 -24685.000000000  -10.967130025   -0.322578661
 -24683.500000000  -10.483764229   -0.321906304
 -24682.000000000  -10.001419468   -0.321217238
 -24680.500000000   -9.520120998   -0.320511208
 -24679.000000000   -9.039894445   -0.319787976
 -24677.500000000   -8.560765783   -0.319047317
 -24676.000000000   -8.082761310   -0.318289023
 -24674.500000000   -7.605907626   -0.317512904
 -24673.000000000   -7.130231599   -0.316718786
 -24671.500000000   -6.655760346   -0.315906514
 -24670.000000000   -6.182521202   -0.315075953
 -24668.500000000   -5.710541689   -0.314226987
 -24667.000000000   -5.239849493   -0.313359517
 -24665.500000000   -4.770472428   -0.312473467
 -24664.000000000   -4.302438411   -0.311568780
 -24662.500000000   -3.835775427   -0.310645418
 -24661.000000000   -3.370511501   -0.309703367
 -24659.500000000   -2.906674668   -0.308742632
 -24658.000000000   -2.444292936   -0.307763238
 -24656.500000000   -1.983394261   -0.306765232
 -24655.000000000   -1.524006513   -0.305748682
 -24653.500000000   -1.066157442   -0.304713678
 -24652.000000000   -0.609874652   -0.303660328
 -24650.500000000   -0.155185565   -0.302588764
 -24649.000000000    0.297882607   -0.301499136
 -24647.500000000    0.749302895   -0.300391615
 -24646.000000000    1.199048601   -0.299266394
 -24644.500000000    1.647093331   -0.298123682
 -24643.000000000    2.093411018   -0.296963711
 -24641.500000000    2.537975960   -0.295786731
 -24640.000000000    2.980762840   -0.294593009
 -24638.500000000    3.421746760   -0.293382832
 -24637.000000000    3.860903262   -0.292156505
 -24635.500000000    4.298208359   -0.290914348
 -24634.000000000    4.733638560   -0.289656700
 -24632.500000000    5.167170890   -0.288383915
 -24631.000000000    5.598782920   -0.287096362
 -24629.500000000    6.028452785   -0.285794427
 -24628.000000000    6.456159208   -0.284478507
 -24626.500000000    6.881881522   -0.283149017
 -24625.000000000    7.305599685   -0.281806380
 -24623.500000000    7.727294307   -0.280451035
 -24622.000000000    8.146946659   -0.279083430
 -24620.500000000    8.564538696   -0.277704025
 -24619.000000000    8.980053070   -0.276313291
 -24617.500000000    9.393473143   -0.274911706
 -24616.000000000    9.804783004   -0.273499757
 -24614.500000000   10.213967480   -0.272077940
 -24613.000000000   10.621012143   -0.270646758
 -24611.500000000   11.025903325   -0.269206718
 -24610.000000000   11.428628125   -0.267758334
 -24608.500000000   11.829174414   -0.266302124
 -24607.000000000   12.227530844   -0.264838610
 -24605.500000000   12.623686854   -0.263368317
 -24604.000000000   13.017632668   -0.261891771
 -24602.500000000   13.409359304   -0.260409501
 -24601.000000000   13.798858574   -0.258922036
 -24599.500000000   14.186123080   -0.257429905
 -24598.000000000   14.571146219   -0.255933634
 -24596.500000000   14.953922177   -0.254433751
 -24595.000000000   15.334445927   -0.252930777
 -24593.500000000   15.712713225   -0.251425234
 -24592.000000000   16.088720603   -0.249917637
 -24590.500000000   16.462465366   -0.248408498
 -24589.000000000   16.833945580   -0.246898323
 -24587.500000000   17.203160067   -0.245387611
 -24586.000000000   17.570108392   -0.243876856
 -24584.500000000   17.934790857   -0.242366543
 -24583.000000000   18.297208483   -0.240857151
 -24581.500000000   18.657363004   -0.239349147
 -24580.000000000   19.015256849   -0.237842992
 -24578.500000000   19.370893131   -0.236339136
 -24577.000000000   19.724275627   -0.234838018
 -24575.500000000   20.075408769   -0.233340067
 -24574.000000000   20.424297621   -0.231845700
 -24572.500000000   20.770947864   -0.230355322
 -24571.000000000   21.115365779   -0.228869327
 -24569.500000000   21.457558226   -0.227388094
 -24568.000000000   21.797532626   -0.225911991
 -24566.500000000   22.135296940   -0.224441370
 -24565.000000000   22.470859648   -0.222976572
 -24563.500000000   22.804229731   -0.221517922
 -24562.000000000   23.135416644   -0.220065731
 -24560.500000000   23.464430300   -0.218620294
 -24559.000000000   23.791281043   -0.217181892
 -24557.500000000   24.115979627   -0.215750791
 -24556.000000000   24.438537191   -0.214327241
 -24554.500000000   24.758965242   -0.212911476
 -24553.000000000   25.077275621   -0.211503715
 -24551.500000000   25.393480489   -0.210104160
 -24550.000000000   25.707592297   -0.208712998
 -24548.500000000   26.019623766   -0.207330400
 -24547.000000000   26.329587857   -0.205956520
 -24545.500000000   26.637497754   -0.204591496
 -24544.000000000   26.943366836   -0.203235452
 -24542.500000000   27.247208651   -0.201888491
 -24541.000000000   27.549036898   -0.200550706
 -24539.500000000   27.848865395   -0.199222171
 -24538.000000000   28.146708064   -0.197902943
 -24536.500000000   28.442578898   -0.196593065
 -24535.000000000   28.736491948   -0.195292566
 -24533.500000000   29.028461291   -0.194001456
 -24532.000000000   29.318501010   -0.192719734
 -24530.500000000   29.606625176   -0.191447380
 -24529.000000000   29.892847819   -0.190184363
 -24527.500000000   30.177182910   -0.188930635
 -24526.000000000   30.459644340   -0.187686136
 -24524.500000000   30.740245896   -0.186450791
 -24523.000000000   31.019001245   -0.185224511
 -24521.500000000   31.295923911   -0.184007195
 -24520.000000000   31.571027256   -0.182798730
 -24518.500000000   31.844324462   -0.181598988
 -24517.000000000   32.115828514   -0.180407832
 -24515.500000000   32.385552177   -0.179225112
 -24514.000000000   32.653507986   -0.178050665
 -24512.500000000   32.919708225   -0.176884322
 -24511.000000000   33.184164912   -0.175725899
 -24509.500000000   33.446889787   -0.174575205
 -24508.000000000   33.707894291   -0.173432038
 -24506.500000000   33.967189561   -0.172296189
 -24505.000000000   34.224786408   -0.171167439
 -24503.500000000   34.480695313   -0.170045560
 -24502.000000000   34.734926409   -0.168930321
 -24500.500000000   34.987489474   -0.167821479
 -24499.000000000   35.238393920   -0.166718787
 -24497.500000000   35.487648785   -0.165621993
 -24496.000000000   35.735262719   -0.164530838
 -24494.500000000   35.981243987   -0.163445059
 -24493.000000000   36.225600450   -0.162364387
 -24491.500000000   36.468339567   -0.161288552
 -24490.000000000   36.709468388   -0.160217279
 -24488.500000000   36.948993547   -0.159150290
 -24487.000000000   37.186921261   -0.158087306
 -24485.500000000   37.423257325   -0.157028044
 -24484.000000000   37.658007111   -0.155972222
 -24482.500000000   37.891175567   -0.154919556
 -24481.000000000   38.122767215   -0.153869763
 -24479.500000000   38.352786150   -0.152822559
 -24478.000000000   38.581236045   -0.151777661
 -24476.500000000   38.808120147   -0.150734789
 -24475.000000000   39.033441284   -0.149693661
 -24473.500000000   39.257201864   -0.148654002
 -24472.000000000   39.479403884   -0.147615535
 -24470.500000000   39.700048929   -0.146577989
 -24469.000000000   39.919138177   -0.145541096
 -24467.500000000   40.136672410   -0.144504591
 -24466.000000000   40.352652015   -0.143468216
 -24464.500000000   40.567076993   -0.142431714
 -24463.000000000   40.779946968   -0.141394836
 -24461.500000000   40.991261192   -0.140357339
 -24460.000000000   41.201018555   -0.139318983
 -24458.500000000   41.409217595   -0.138279537
 -24457.000000000   41.615856507   -0.137238775
 -24455.500000000   41.820933153   -0.136196480
 -24454.000000000   42.024445075   -0.135152441
 -24452.500000000   42.226389501   -0.134106453
 -24451.000000000   42.426763363   -0.133058323
 -24449.500000000   42.625563305   -0.132007862
 -24448.000000000   42.822785695   -0.130954892
 -24446.500000000   43.018426641   -0.129899242
 -24445.000000000   43.212482002   -0.128840752
 -24443.500000000   43.404947400   -0.127779268
 -24442.000000000   43.595818239   -0.126714648
 -24440.500000000   43.785089710   -0.125646759
 -24439.000000000   43.972756817   -0.124575475
 -24437.500000000   44.158814381   -0.123500683
 -24436.000000000   44.343257060   -0.122422278
 -24434.500000000   44.526079362   -0.121340166
 -24433.000000000   44.707275662   -0.120254261
 -24431.500000000   44.886840213   -0.119164490
 -24430.000000000   45.064767166   -0.118070788
 -24428.500000000   45.241050583   -0.116973099
 -24427.000000000   45.415684449   -0.115871381
 -24425.500000000   45.588662694   -0.114765599
 -24424.000000000   45.759979203   -0.113655729
 -24422.500000000   45.929627831   -0.112541758
 -24421.000000000   46.097602423   -0.111423681
 -24419.500000000   46.263896823   -0.110301504
 -24418.000000000   46.428504894   -0.109175244
 -24416.500000000   46.591420528   -0.108044927
 -24415.000000000   46.752637664   -0.106910588
 -24413.500000000   46.912150303   -0.105772272
 -24412.000000000   47.069952518   -0.104630033
 -24410.500000000   47.226038472   -0.103483936
 -24409.000000000   47.380402431   -0.102334052
 -24407.500000000   47.533038775   -0.101180464
 -24406.000000000   47.683942015   -0.100023262
 -24404.500000000   47.833106802   -0.098862544
 -24403.000000000   47.980527943   -0.097698418
 -24401.500000000   48.126200409   -0.096530998
 -24400.000000000   48.270119352   -0.095360408
 -24398.500000000   48.412280113   -0.094186777
 -24397.000000000   48.552678233   -0.093010244
 -24395.500000000   48.691309465   -0.091830952
 -24394.000000000   48.828169783   -0.090649052
 -24392.500000000   48.963255395   -0.089464702
 -24391.000000000   49.096562747   -0.088278066
 -24389.500000000   49.228088535   -0.087089313
 -24388.000000000   49.357829713   -0.085898616
 -24386.500000000   49.485783503   -0.084706157
 -24385.000000000   49.611947396   -0.083512120
 -24383.500000000   49.736319168   -0.082316693
 -24382.000000000   49.858896877   -0.081120070
