#! FIELDS energy b1.bias der_energy
#! SET min_energy -25000
#! SET max_energy -23500
#! SET nbins_energy  1001
#! SET periodic_energy false
 -25000.000000000 -102.861990847   -0.261712624
 -24998.500000000 -102.479591038   -0.248544771
 -24997.000000000 -102.115251392   -0.237588001
 -24995.500000000 -101.765849252   -0.228587541
 -24994.000000000 -101.428627193   -0.221310923
 -24992.500000000 -101.101160738   -0.215546436
 -24991.000000000 -100.781328323   -0.211101669
 -24989.500000000 -100.467283388   -0.207802141
 -24988.000000000 -100.157428461   -0.205490003
 -24986.500000000  -99.850391140   -0.204022818
 -24985.000000000  -99.545001837   -0.203272414
 -24983.500000000  -99.240273200   -0.203123810
 -24982.000000000  -98.935381102   -0.203474191
 -24980.500000000  -98.629647101   -0.204231967
 -24979.000000000  -98.322522293   -0.205315872
 -24977.500000000  -98.013572454   -0.206654128
 -24976.000000000  -97.702464405   -0.208183659
 -24974.500000000  -97.388953515   -0.209849358
 -24973.000000000  -97.072872272   -0.211603398
 -24971.500000000  -96.754119846   -0.213404591
 -24970.000000000  -96.432652590   -0.215217786
 -24968.500000000  -96.108475404   -0.217013314
 -24967.000000000  -95.781633911   -0.218766463
 -24965.500000000  -95.452207389   -0.220456997
 -24964.000000000  -95.120302394   -0.222068703
 -24962.500000000  -94.786047050   -0.223588975
 -24961.000000000  -94.449585927   -0.225008426
 -24959.500000000  -94.111075488   -0.226320529
 -24958.000000000  -93.770680049   -0.227521287
 -24956.500000000  -93.428568220   -0.228608925
 -24955.000000000  -93.084909780   -0.229583609
 -24953.500000000  -92.739872968   -0.230447190
 -24952.000000000  -92.393622135   -0.231202961
 -24950.500000000  -92.046315748   -0.231855442
 -24949.000000000  -91.698104694   -0.232410182
 -24947.500000000  -91.349130887   -0.232873575
 -24946.000000000  -90.999526114   -0.233252697
 -24944.500000000  -90.649411135   -0.233555155
 -24943.000000000  -90.298894983   -0.233788954
 -24941.500000000  -89.948074465   -0.233962373
 -24940.000000000  -89.597033834   -0.234083855
 -24938.500000000  -89.245844612   -0.234161914
 -24937.000000000  -88.894565556   -0.234205043
 -24935.500000000  -88.543242744   -0.234221643
 -24934.000000000  -88.191909769   -0.234219950
 -24932.500000000  -87.840588028   -0.234207981
 -24931.000000000  -87.489287088   -0.234193479
 -24929.500000000  -87.138005134   -0.234183877
 -24928.000000000  -86.786729460   -0.234186254
 -24926.500000000  -86.435437024   -0.234207310
 -24925.000000000  -86.084095036   -0.234253338
 -24923.500000000  -85.732661580   -0.234330210
 -24922.000000000  -85.381086262   -0.234443356
 -24920.500000000  -85.029310876   -0.234597760
 -24919.000000000  -84.677270080   -0.234797953
 -24917.500000000  -84.324892079   -0.235048006
 -24916.000000000  -83.972099314   -0.235351537
 -24914.500000000  -83.618809138   -0.235711712
 -24913.000000000  -83.264934490   -0.236131249
 -24911.500000000  -82.910384562   -0.236612430
 -24910.000000000  -82.555065442   -0.237157113
 -24908.500000000  -82.198880746   -0.237766738
 -24907.000000000  -81.841732230   -0.238442346
 -24905.500000000  -81.483520381   -0.239184594
 -24904.000000000  -81.124144979   -0.239993768
 -24902.500000000  -80.763505640   -0.240869805
 -24901.000000000  -80.401502328   -0.241812304
 -24899.500000000  -80.038035848   -0.242820552
 -24898.000000000  -79.673008298   -0.243893539
 -24896.500000000  -79.306323503   -0.245029975
 -24895.000000000  -78.937887418   -0.246228314
 -24893.500000000  -78.567608497   -0.247486772
 -24892.000000000  -78.195398041   -0.248803344
 -24890.500000000  -77.821170508   -0.250175825
 -24889.000000000  -77.444843801   -0.251601830
 -24887.500000000  -77.066339528   -0.253078809
 -24886.000000000  -76.685583229   -0.254604072
 -24884.500000000  -76.302504579   -0.256174798
 -24883.000000000  -75.917037566   -0.257788060
 -24881.500000000  -75.529120639   -0.259440839
 -24880.000000000  -75.138696837   -0.261130038
 -24878.500000000  -74.745713890   -0.262852503
 -24877.000000000  -74.350124295   -0.264605033
 -24875.500000000  -73.951885374   -0.266384397
 -24874.000000000  -73.550959310   -0.268187348
 -24872.500000000  -73.147313163   -0.270010634
 -24871.000000000  -72.740918862   -0.271851014
 -24869.500000000  -72.331753187   -0.273705265
 -24868.000000000  -71.919797729   -0.275570197
 -24866.500000000  -71.505038831   -0.277442662
 -24865.000000000  -71.087467527   -0.279319562
 -24863.500000000  -70.667079447   -0.281197861
 -24862.000000000  -70.243874730   -0.283074589
 -24860.500000000  -69.817857911   -0.284946855
 -24859.000000000  -69.389037802   -0.286811849
 -24857.500000000  -68.957427363   -0.288666849
 -24856.000000000  -68.523043568   -0.290509229
 -24854.500000000  -68.085907253   -0.292336462
 -24853.000000000  -67.646042969   -0.294146125
 -24851.500000000  -67.203478821   -0.295935903
 -24850.000000000  -66.758246306   -0.297703591
 -24848.500000000  -66.310380141   -0.299447097
 -24847.000000000  -65.859918097   -0.301164444
 -24845.500000000  -65.406900821   -0.302853773
 -24844.000000000  -64.951371660   -0.304513343
 -24842.500000000  -64.493376484   -0.306141532
 -24841.000000000  -64.032963509   -0.307736836
 -24839.500000000  -63.570183115   -0.309297869
 -24838.000000000  -63.105087672   -0.310823366
 -24836.500000000  -62.637731363   -0.312312176
 -24835.000000000  -62.168170006   -0.313763266
 -24833.500000000  -61.696460887   -0.315175716
 -24832.000000000  -61.222662583   -0.316548719
 -24830.500000000  -60.746834804   -0.317881578
 -24829.000000000  -60.269038219   -0.319173702
 -24827.500000000  -59.789334309   -0.320424607
 -24826.000000000  -59.307785200   -0.321633910
 -24824.500000000  -58.824453523   -0.322801327
 -24823.000000000  -58.339402258   -0.323926669
 -24821.500000000  -57.852694604   -0.325009839
 -24820.000000000  -57.364393834   -0.326050828
 -24818.500000000  -56.874563173   -0.327049714
 -24817.000000000  -56.383265668   -0.328006653
 -24815.500000000  -55.890564073   -0.328921879
 -24814.000000000  -55.396520736   -0.329795699
 -24812.500000000  -54.901197491   -0.330628490
 -24811.000000000  -54.404655561   -0.331420692
 -24809.500000000  -53.906955461   -0.332172806
 -24808.000000000  -53.408156909   -0.332885391
 -24806.500000000  -52.908318747   -0.333559058
 -24805.000000000  -52.407498865   -0.334194465
 -24803.500000000  -51.905754129   -0.334792317
 -24802.000000000  -51.403140321   -0.335353356
 -24800.500000000  -50.899712078   -0.335878363
 -24799.000000000  -50.395522842   -0.336368151
 -24797.500000000  -49.890624814   -0.336823560
 -24796.000000000  -49.385068917   -0.337245457
 -24794.500000000  -48.878904756   -0.337634728
 -24793.000000000  -48.372180593   -0.337992279
 -24791.500000000  -47.864943322   -0.338319026
 -24790.000000000  -47.357238452   -0.338615899
 -24788.500000000  -46.849110093   -0.338883835
 -24787.000000000  -46.340600947   -0.339123772
 -24785.500000000  -45.831752305   -0.339336653
 -24784.000000000  -45.322604048   -0.339523416
 -24782.500000000  -44.813194650   -0.339684995
 -24781.000000000  -44.303561191   -0.339822317
 -24779.500000000  -43.793739368   -0.339936299
 -24778.000000000  -43.283763511   -0.340027845
 -24776.500000000  -42.773666605   -0.340097844
 -24775.000000000  -42.263480316   -0.340147167
 -24773.500000000  -41.753235014   -0.340176669
 -24772.000000000  -41.242959804   -0.340187181
 -24770.500000000  -40.732682561   -0.340179513
 -24769.000000000  -40.222429963   -0.340154449
 -24767.500000000  -39.712227531   -0.340112750
 -24766.000000000  -39.202099664   -0.340055147
 -24764.500000000  -38.692069689   -0.339982344
 -24763.000000000  -38.182159895   -0.339895015
 -24761.500000000  -37.672391585   -0.339793804
 -24760.000000000  -37.162785119   -0.339679323
 -24758.500000000  -36.653359961   -0.339552152
 -24757.000000000  -36.144134733   -0.339412840
 -24755.500000000  -35.635127256   -0.339261900
 -24754.000000000  -35.126354606   -0.339099814
 -24752.500000000  -34.617833163   -0.338927029
 -24751.000000000  -34.109578660   -0.338743959
 -24749.500000000  -33.601606238   -0.338550983
 -24748.000000000  -33.093930491   -0.338348447
 -24746.500000000  -32.586565521   -0.338136663
 -24745.000000000  -32.079524987   -0.337915909
 -24743.500000000  -31.572822156   -0.337686431
 -24742.000000000  -31.066469949   -0.337448442
 -24740.500000000  -30.560480993   -0.337202123
 -24739.000000000  -30.054867669   -0.336947623
 -24737.500000000  -29.549642155   -0.336685060
 -24736.000000000  -29.044816476   -0.336414522
 -24734.500000000  -28.540402547   -0.336136068
 -24733.000000000  -28.036412214   -0.335849729
 -24731.500000000  -27.532857301   -0.335555507
 -24730.000000000  -27.029749646   -0.335253378
 -24728.500000000  -26.527101143   -0.334943294
 -24727.000000000  -26.024923778   -0.334625180
 -24725.500000000  -25.523229666   -0.334298939
 -24724.000000000  -25.022031083   -0.333964452
 -24722.500000000  -24.521340503   -0.333621578
 -24721.000000000  -24.021170623   -0.333270156
 -24719.500000000  -23.521534397   -0.332910008
 -24718.000000000  -23.022445059   -0.332540937
 -24716.500000000  -22.523916152   -0.332162731
 -24715.000000000  -22.025961549   -0.331775161
 -24713.500000000  -21.528595471   -0.331377987
 -24712.000000000  -21.031832516   -0.330970956
 -24710.500000000  -20.535687665   -0.330553803
 -24709.000000000  -20.040176305   -0.330126254
 -24707.500000000  -19.545314241   -0.329688027
 -24706.000000000  -19.051117707   -0.329238832
 -24704.500000000  -18.557603375   -0.328778375
 -24703.000000000  -18.064788364   -0.328306354
 -24701.500000000  -17.572690246   -0.327822467
 -24700.000000000  -17.081327048   -0.327326409
 -24698.500000000  -16.590717257   -0.326817873
 -24697.000000000  -16.100879820   -0.326296554
 -24695.500000000  -15.611834141   -0.325762146
 -24694.000000000  -15.123600078   -0.325214348
 -24692.500000000  -14.636197941   -0.324652862
 -24691.000000000  -14.149648482   -0.324077395
 -24689.500000000  -13.663972891   -0.323487659
 -24688.000000000  -13.179192781   -0.322883373
 -24686.500000000  -12.695330184   -0.322264264
 -24685.000000000  -12.212407533   -0.321630068
 -24683.500000000  -11.730447651   -0.320980531
 -24682.000000000  -11.249473733   -0.320315409
 -24680.500000000  -10.769509334   -0.319634468
 -24679.000000000  -10.290578348   -0.318937488
 -24677.500000000   -9.812704992   -0.318224262
 -24676.000000000   -9.335913783   -0.317494594
 -24674.500000000   -8.860229520   -0.316748305
 -24673.000000000   -8.385677261   -0.315985229
 -24671.500000000   -7.912282301   -0.315205216
 -24670.000000000   -7.440070148   -0.314408132
 -24668.500000000   -6.969066500   -0.313593858
 -24667.000000000   -6.499297221   -0.312762292
 -24665.500000000   -6.030788311   -0.311913352
 -24664.000000000   -5.563565887   -0.311046968
 -24662.500000000   -5.097656152   -0.310163094
 -24661.000000000   -4.633085368   -0.309261696
 -24659.500000000   -4.169879833   -0.308342761
 -24658.000000000   -3.708065850   -0.307406296
 -24656.500000000   -3.247669700   -0.306452322
 -24655.000000000   -2.788717617   -0.305480883
 -24653.500000000   -2.331235756   -0.304492037
 -24652.000000000   -1.875250169   -0.303485865
 -24650.500000000   -1.420786777   -0.302462462
 -24649.000000000   -0.967871340   -0.301421946
 -24647.500000000   -0.516529431   -0.300364448
 -24646.000000000   -0.066786411   -0.299290121
 -24644.500000000    0.381332603   -0.298199135
 -24643.000000000    0.827802757   -0.297091676
 -24641.500000000    1.272599495   -0.295967948
 -24640.000000000    1.715698576   -0.294828172
 -24638.500000000    2.157076106   -0.293672587
 -24637.000000000    2.596708559   -0.292501446
 -24635.500000000    3.034572801   -0.291315019
 -24634.000000000    3.470646116   -0.290113592
 -24632.500000000    3.904906225   -0.288897463
 -24631.000000000    4.337331313   -0.287666949
 -24629.500000000    4.767900044   -0.286422377
 -24628.000000000    5.196591586   -0.285164090
 -24626.500000000    5.623385633   -0.283892442
 -24625.000000000    6.048262415   -0.282607800
 -24623.500000000    6.471202725   -0.281310544
 -24622.000000000    6.892187933   -0.280001062
 -24620.500000000    7.311199999   -0.278679756
 -24619.000000000    7.728221493   -0.277347035
 -24617.500000000    8.143235607   -0.276003320
 -24616.000000000    8.556226169   -0.274649037
 -24614.500000000    8.967177654   -0.273284624
 -24613.000000000    9.376075196   -0.271910521
 -24611.500000000    9.782904599   -0.270527180
 -24610.000000000   10.187652345   -0.269135056
 -24608.500000000   10.590305605   -0.267734608
 -24607.000000000   10.990852240   -0.266326302
 -24605.500000000   11.389280815   -0.264910606
 -24604.000000000   11.785580598   -0.263487991
 -24602.500000000   12.179741566   -0.262058932
 -24601.000000000   12.571754410   -0.260623904
 -24599.500000000   12.961610534   -0.259183384
 -24598.000000000   13.349302055   -0.257737848
 -24596.500000000   13.734821808   -0.256287772
 -24595.000000000   14.118163339   -0.254833632
 -24593.500000000   14.499320908   -0.253375901
 -24592.000000000   14.878289483   -0.251915050
 -24590.500000000   15.255064733   -0.250451547
 -24589.000000000   15.629643030   -0.248985857
 -24587.500000000   16.002021439   -0.247518438
 -24586.000000000   16.372197709   -0.246049747
 -24584.500000000   16.740170269   -0.244580233
 -24583.000000000   17.105938217   -0.243110339
 -24581.500000000   17.469501313   -0.241640502
 -24580.000000000   17.830859965   -0.240171151
 -24578.500000000   18.190015221   -0.238702709
 -24577.000000000   18.546968753   -0.237235589
 -24575.500000000   18.901722852   -0.235770196
 -24574.000000000   19.254280404   -0.234306927
 -24572.500000000   19.604644886   -0.232846166
 -24571.000000000   19.952820344   -0.231388289
 -24569.500000000   20.298811380   -0.229933664
 -24568.000000000   20.642623138   -0.228482644
 -24566.500000000   20.984261285   -0.227035572
 -24565.000000000   21.323731995   -0.225592781
 -24563.500000000   21.661041929   -0.224154590
 -24562.000000000   21.996198220   -0.222721308
 -24560.500000000   22.329208454   -0.221293229
 -24559.000000000   22.660080651   -0.219870637
 -24557.500000000   22.988823242   -0.218453800
 -24556.000000000   23.315445056   -0.217042975
 -24554.500000000   23.639955295   -0.215638405
 -24553.000000000   23.962363515   -0.214240321
 -24551.500000000   24.282679607   -0.212848937
 -24550.000000000   24.600913777   -0.211464456
 -24548.500000000   24.917076520   -0.210087066
 -24547.000000000   25.231178606   -0.208716941
 -24545.500000000   25.543231056   -0.207354242
 -24544.000000000   25.853245120   -0.205999116
 -24542.500000000   26.161232257   -0.204651694
 -24541.000000000   26.467204115   -0.203312096
 -24539.500000000   26.771172509   -0.201980425
 -24538.000000000   27.073149399   -0.200656772
 -24536.500000000   27.373146872   -0.199341214
 -24535.000000000   27.671177120   -0.198033814
 -24533.500000000   27.967252419   -0.196734622
 -24532.000000000   28.261385109   -0.195443674
 -24530.500000000   28.553587575   -0.194160993
 -24529.000000000   28.843872227   -0.192886589
 -24527.500000000   29.132251480   -0.191620459
 -24526.000000000   29.418737733   -0.190362587
 -24524.500000000   29.703343355   -0.189112945
 -24523.000000000   29.986080662   -0.187871493
 -24521.500000000   30.266961903   -0.186638180
 -24520.000000000   30.545999238   -0.185412940
 -24518.500000000   30.823204725   -0.184195701
 -24517.000000000   31.098590298   -0.182986375
 -24515.500000000   31.372167759   -0.181784867
 -24514.000000000   31.643948754   -0.180591068
 -24512.500000000   31.913944761   -0.179404864
 -24511.000000000   32.182167078   -0.178226126
 -24509.500000000   32.448626805   -0.177054720
 -24508.000000000   32.713334831   -0.175890500
 -24506.500000000   32.976301822   -0.174733315
 -24505.000000000   33.237538211   -0.173583002
 -24503.500000000   33.497054180   -0.172439393
 -24502.000000000   33.754859655   -0.171302313
 -24500.500000000   34.010964292   -0.170171578
 -24499.000000000   34.265377468   -0.169047000
 -24497.500000000   34.518108272   -0.167928383
 -24496.000000000   34.769165496   -0.166815526
 -24494.500000000   35.018557628   -0.165708225
 -24493.000000000   35.266292842   -0.164606267
 -24491.500000000   35.512378995   -0.163509440
 -24490.000000000   35.756823619   -0.162417525
 -24488.500000000   35.999633914   -0.161330299
 -24487.000000000   36.240816748   -0.160247538
 -24485.500000000   36.480378648   -0.159169016
 -24484.000000000   36.718325801   -0.158094503
 -24482.500000000   36.954664047   -0.157023769
 -24481.000000000   37.189398881   -0.155956581
 -24479.500000000   37.422535449   -0.154892708
 -24478.000000000   37.654078547   -0.153831917
 -24476.500000000   37.884032625   -0.152773975
 -24475.000000000   38.112401781   -0.151718650
 -24473.500000000   38.339189768   -0.150665711
 -24472.000000000   38.564399992   -0.149614928
 -24470.500000000   38.788035516   -0.148566074
 -24469.000000000   39.010099064   -0.147518922
 -24467.500000000   39.230593021   -0.146473249
 -24466.000000000   39.449519441   -0.145428835
 -24464.500000000   39.666880048   -0.144385463
 -24463.000000000   39.882676244   -0.143342919
 -24461.500000000   40.096909114   -0.142300993
 -24460.000000000   40.309579430   -0.141259481
 -24458.500000000   40.520687661   -0.140218180
 -24457.000000000   40.730233979   -0.139176896
 -24455.500000000   40.938218263   -0.138135438
 -24454.000000000   41.144640113   -0.137093620
 -24452.500000000   41.349498854   -0.136051263
 -24451.000000000   41.552793547   -0.135008194
 -24449.500000000   41.754522995   -0.133964244
 -24448.000000000   41.954685758   -0.132919254
 -24446.500000000   42.153280158   -0.131873068
 -24445.000000000   42.350304291   -0.130825540
 -24443.500000000   42.545756037   -0.129776530
 -24442.000000000   42.739633073   -0.128725904
 -24440.500000000   42.931932878   -0.127673537
 -24439.000000000   43.122652753   -0.126619310
 -24437.500000000   43.311789824   -0.125563114
 -24436.000000000   43.499341058   -0.124504846
 -24434.500000000   43.685303277   -0.123444410
 -24433.000000000   43.869673162   -0.122381721
 -24431.500000000   44.052447274   -0.121316700
 -24430.000000000   44.233622060   -0.120249275
 -24428.500000000   44.413193867   -0.119179386
 -24427.000000000   44.591158957   -0.118106976
 -24425.500000000   44.767513513   -0.117032001
 -24424.000000000   44.942253659   -0.115954423
 -24422.500000000   45.115375465   -0.114874211
 -24421.000000000   45.286874965   -0.113791345
 -24419.500000000   45.456748166   -0.112705811
 -24418.000000000   45.624991062   -0.111617604
 -24416.500000000   45.791599642   -0.110526726
 -24415.000000000   45.956569909   -0.109433188
 -24413.500000000   46.119897885   -0.108337009
 -24412.000000000   46.281579627   -0.107238214
 -24410.500000000   46.441611236   -0.106136837
 -24409.000000000   46.599988869   -0.105032920
 -24407.500000000   46.756708751   -0.103926511
 -24406.000000000   46.911767185   -0.102817666
 -24404.500000000   47.065160563   -0.101706448
 -24403.000000000   47.216885376   -0.100592925
 -24401.500000000   47.366938224   -0.099477174
 -24400.000000000   47.515315826   -0.098359279
 -24398.500000000   47.662015031   -0.097239326
 -24397.000000000   47.807032824   -0.096117413
 -24395.500000000   47.950366338   -0.094993638
 -24394.000000000   48.092012861   -0.093868109
 -24392.500000000   48.231969843   -0.092740937
 -24391.000000000   48.370234908   -0.091612238
 -24389.500000000   48.506805856   -0.090482135
 -24388.000000000   48.641680673   -0.089350753
 -24386.500000000   48.774857540   -0.088218223
 -24385.000000000   48.906334834   -0.087084678
 -24383.500000000   49.036111137   -0.085950258
 -24382.000000000   49.164185242   -0.084815104
