#! FIELDS energy b1.bias der_energy
#! SET min_energy -25000
#! SET max_energy -23500
#! SET nbins_energy  1001
#! SET periodic_energy false
 -25000.000000000 -102.412048530   -0.271190979
 -24998.500000000 -102.015895344   -0.257384126
 -24997.000000000 -101.638842864   -0.245684500
 -24995.500000000 -101.277900392   -0.235868385
 -24994.000000000 -100.930398977   -0.227730299
 -24992.500000000 -100.593964963   -0.221081807
 -24991.000000000 -100.266495261   -0.215750402
 -24989.500000000  -99.946134264   -0.211578444
 -24988.000000000  -99.631252311   -0.208422152
 -24986.500000000  -99.320425609   -0.206150658
 -24985.000000000  -99.012417547   -0.204645114
 -24983.500000000  -98.706161306   -0.203797839
 -24982.000000000  -98.400743708   -0.203511529
 -24980.500000000  -98.095390229   -0.203698498
 -24979.000000000  -97.789451098   -0.204279974
 -24977.500000000  -97.482388442   -0.205185431
 -24976.000000000  -97.173764386   -0.206351958
 -24974.500000000  -96.863230083   -0.207723670
 -24973.000000000  -96.550515588   -0.209251156
 -24971.500000000  -96.235420551   -0.210890953
 -24970.000000000  -95.917805657   -0.212605062
 -24968.500000000  -95.597584782   -0.214360488
 -24967.000000000  -95.274717813   -0.216128811
 -24965.500000000  -94.949204087   -0.217885784
 -24964.000000000  -94.621076417   -0.219610959
 -24962.500000000  -94.290395660   -0.221287337
 -24961.000000000  -93.957245791   -0.222901040
 -24959.500000000  -93.621729450   -0.224441007
 -24958.000000000  -93.283963938   -0.225898711
 -24956.500000000  -92.944077610   -0.227267894
 -24955.000000000  -92.602206661   -0.228544325
 -24953.500000000  -92.258492256   -0.229725568
 -24952.000000000  -91.913077997   -0.230810779
 -24950.500000000  -91.566107681   -0.231800507
 -24949.000000000  -91.217723354   -0.232696514
 -24947.500000000  -90.868063607   -0.233501616
 -24946.000000000  -90.517262117   -0.234219522
 -24944.500000000  -90.165446412   -0.234854705
 -24943.000000000  -89.812736823   -0.235412264
 -24941.500000000  -89.459245631   -0.235897815
 -24940.000000000  -89.105076374   -0.236317383
 -24938.500000000  -88.750323310   -0.236677303
 -24937.000000000  -88.395071013   -0.236984133
 -24935.500000000  -88.039394102   -0.237244580
 -24934.000000000  -87.683357074   -0.237465422
 -24932.500000000  -87.327014242   -0.237653449
 -24931.000000000  -86.970409763   -0.237815403
 -24929.500000000  -86.613577745   -0.237957931
 -24928.000000000  -86.256542428   -0.238087539
 -24926.500000000  -85.899318421   -0.238210554
 -24925.000000000  -85.541911001   -0.238333089
 -24923.500000000  -85.184316453   -0.238461016
 -24922.000000000  -84.826522450   -0.238599939
 -24920.500000000  -84.468508472   -0.238755177
 -24919.000000000  -84.110246247   -0.238931746
 -24917.500000000  -83.751700214   -0.239134344
 -24916.000000000  -83.392828009   -0.239367343
 -24914.500000000  -83.033580958   -0.239634784
 -24913.000000000  -82.673904582   -0.239940365
 -24911.500000000  -82.313739106   -0.240287449
 -24910.000000000  -81.953019969   -0.240679055
 -24908.500000000  -81.591678333   -0.241117866
 -24907.000000000  -81.229641588   -0.241606231
 -24905.500000000  -80.866833850   -0.242146166
 -24904.000000000  -80.503176449   -0.242739370
 -24902.500000000  -80.138588410   -0.243387223
 -24901.000000000  -79.772986913   -0.244090801
 -24899.500000000  -79.406287750   -0.244850884
 -24898.000000000  -79.038405757   -0.245667967
 -24896.500000000  -78.669255233   -0.246542272
 -24895.000000000  -78.298750345   -0.247473758
 -24893.500000000  -77.926805509   -0.248462135
 -24892.000000000  -77.553335756   -0.249506875
 -24890.500000000  -77.178257073   -0.250607230
 -24889.000000000  -76.801486737   -0.251762237
 -24887.500000000  -76.422943613   -0.252970738
 -24886.000000000  -76.042548444   -0.254231392
 -24884.500000000  -75.660224114   -0.255542687
 -24883.000000000  -75.275895896   -0.256902951
 -24881.500000000  -74.889491679   -0.258310372
 -24880.000000000  -74.500942171   -0.259763005
 -24878.500000000  -74.110181089   -0.261258785
 -24877.000000000  -73.717145325   -0.262795544
 -24875.500000000  -73.321775099   -0.264371017
 -24874.000000000  -72.924014089   -0.265982859
 -24872.500000000  -72.523809544   -0.267628655
 -24871.000000000  -72.121112384   -0.269305928
 -24869.500000000  -71.715877281   -0.271012156
 -24868.000000000  -71.308062721   -0.272744775
 -24866.500000000  -70.897631055   -0.274501195
 -24865.000000000  -70.484548539   -0.276278807
 -24863.500000000  -70.068785347   -0.278074992
 -24862.000000000  -69.650315588   -0.279887128
 -24860.500000000  -69.229117294   -0.281712603
 -24859.000000000  -68.805172410   -0.283548817
 -24857.500000000  -68.378466762   -0.285393194
 -24856.000000000  -67.948990020   -0.287243187
 -24854.500000000  -67.516735652   -0.289096281
 -24853.000000000  -67.081700864   -0.290950005
 -24851.500000000  -66.643886536   -0.292801934
 -24850.000000000  -66.203297147   -0.294649695
 -24848.500000000  -65.759940696   -0.296490970
 -24847.000000000  -65.313828610   -0.298323503
 -24845.500000000  -64.864975655   -0.300145102
 -24844.000000000  -64.413399834   -0.301953643
 -24842.500000000  -63.959122284   -0.303747072
 -24841.000000000  -63.502167165   -0.305523411
 -24839.500000000  -63.042561550   -0.307280755
 -24838.000000000  -62.580335311   -0.309017280
 -24836.500000000  -62.115520995   -0.310731239
 -24835.000000000  -61.648153709   -0.312420970
 -24833.500000000  -61.178270994   -0.314084888
 -24832.000000000  -60.705912702   -0.315721495
 -24830.500000000  -60.231120874   -0.317329375
 -24829.000000000  -59.753939609   -0.318907195
 -24827.500000000  -59.274414944   -0.320453708
 -24826.000000000  -58.792594724   -0.321967747
 -24824.500000000  -58.308528483   -0.323448230
 -24823.000000000  -57.822267315   -0.324894157
 -24821.500000000  -57.333863753   -0.326304608
 -24820.000000000  -56.843371648   -0.327678746
 -24818.500000000  -56.350846053   -0.329015810
 -24817.000000000  -55.856343098   -0.330315117
 -24815.500000000  -55.359919884   -0.331576062
 -24814.000000000  -54.861634362   -0.332798111
 -24812.500000000  -54.361545228   -0.333980806
 -24811.000000000  -53.859711816   -0.335123757
 -24809.500000000  -53.356193991   -0.336226643
 -24808.000000000  -52.851052049   -0.337289209
 -24806.500000000  -52.344346619   -0.338311266
 -24805.000000000  -51.836138570   -0.339292685
 -24803.500000000  -51.326488919   -0.340233397
 -24802.000000000  -50.815458740   -0.341133390
 -24800.500000000  -50.303109088   -0.341992707
 -24799.000000000  -49.789500910   -0.342811444
 -24797.500000000  -49.274694974   -0.343589746
 -24796.000000000  -48.758751795   -0.344327804
 -24794.500000000  -48.241731566   -0.345025857
 -24793.000000000  -47.723694089   -0.345684183
 -24791.500000000  -47.204698721   -0.346303102
 -24790.000000000  -46.684804307   -0.346882972
 -24788.500000000  -46.164069136   -0.347424182
 -24787.000000000  -45.642550880   -0.347927157
 -24785.500000000  -45.120306556   -0.348392351
 -24784.000000000  -44.597392478   -0.348820245
 -24782.500000000  -44.073864217   -0.349211347
 -24781.000000000  -43.549776569   -0.349566185
 -24779.500000000  -43.025183518   -0.349885311
 -24778.000000000  -42.500138209   -0.350169293
 -24776.500000000  -41.974692919   -0.350418717
 -24775.000000000  -41.448899038   -0.350634182
 -24773.500000000  -40.922807047   -0.350816300
 -24772.000000000  -40.396466500   -0.350965694
 -24770.500000000  -39.869926011   -0.351082994
 -24769.000000000  -39.343233246   -0.351168838
 -24767.500000000  -38.816434906   -0.351223867
 -24766.000000000  -38.289576730   -0.351248726
 -24764.500000000  -37.762703488   -0.351244063
 -24763.000000000  -37.235858979   -0.351210524
 -24761.500000000  -36.709086031   -0.351148755
 -24760.000000000  -36.182426509   -0.351059396
 -24758.500000000  -35.655921317   -0.350943087
 -24757.000000000  -35.129610406   -0.350800461
 -24755.500000000  -34.603532781   -0.350632142
 -24754.000000000  -34.077726517   -0.350438749
 -24752.500000000  -33.552228766   -0.350220892
 -24751.000000000  -33.027075774   -0.349979170
 -24749.500000000  -32.502302895   -0.349714171
 -24748.000000000  -31.977944609   -0.349426474
 -24746.500000000  -31.454034538   -0.349116645
 -24745.000000000  -30.930605466   -0.348785234
 -24743.500000000  -30.407689357   -0.348432782
 -24742.000000000  -29.885317378   -0.348059813
 -24740.500000000  -29.363519919   -0.347666839
 -24739.000000000  -28.842326617   -0.347254354
 -24737.500000000  -28.321766373   -0.346822839
 -24736.000000000  -27.801867383   -0.346372759
 -24734.500000000  -27.282657155   -0.345904563
 -24733.000000000  -26.764162536   -0.345418684
 -24731.500000000  -26.246409736   -0.344915540
 -24730.000000000  -25.729424350   -0.344395531
 -24728.500000000  -25.213231384   -0.343859042
 -24727.000000000  -24.697855280   -0.343306442
 -24725.500000000  -24.183319938   -0.342738083
 -24724.000000000  -23.669648740   -0.342154303
 -24722.500000000  -23.156864578   -0.341555423
 -24721.000000000  -22.644989870   -0.340941746
 -24719.500000000  -22.134046591   -0.340313565
 -24718.000000000  -21.624056290   -0.339671153
 -24716.500000000  -21.115040115   -0.339014772
 -24715.000000000  -20.607018836   -0.338344666
 -24713.500000000  -20.100012862   -0.337661068
 -24712.000000000  -19.594042268   -0.336964196
 -24710.500000000  -19.089126809   -0.336254254
 -24709.000000000  -18.585285944   -0.335531436
 -24707.500000000  -18.082538851   -0.334795919
 -24706.000000000  -17.580904450   -0.334047874
 -24704.500000000  -17.080401417   -0.333287455
 -24703.000000000  -16.581048199   -0.332514809
 -24701.500000000  -16.082863035   -0.331730071
 -24700.000000000  -15.585863968   -0.330933367
 -24698.500000000  -15.090068859   -0.330124813
 -24697.000000000  -14.595495401   -0.329304516
 -24695.500000000  -14.102161132   -0.328472577
 -24694.000000000  -13.610083446   -0.327629086
 -24692.500000000  -13.119279605   -0.326774130
 -24691.000000000  -12.629766750   -0.325907786
 -24689.500000000  -12.141561906   -0.325030126
 -24688.000000000  -11.654681995   -0.324141219
 -24686.500000000  -11.169143841   -0.323241126
 -24685.000000000  -10.684964180   -0.322329906
 -24683.500000000  -10.202159660   -0.321407613
 -24682.000000000   -9.720746852   -0.320474298
 -24680.500000000   -9.240742252   -0.319530011
 -24679.000000000   -8.762162283   -0.318574797
 -24677.500000000   -8.285023300   -0.317608703
 -24676.000000000   -7.809341593   -0.316631771
 -24674.500000000   -7.335133383   -0.315644046
 -24673.000000000   -6.862414831   -0.314645570
 -24671.500000000   -6.391202028   -0.313636387
 -24670.000000000   -5.921511002   -0.312616541
 -24668.500000000   -5.453357714   -0.311586078
 -24667.000000000   -4.986758054   -0.310545044
 -24665.500000000   -4.521727842   -0.309493490
 -24664.000000000   -4.058282820   -0.308431465
 -24662.500000000   -3.596438654   -0.307359025
 -24661.000000000   -3.136210925   -0.306276226
 -24659.500000000   -2.677615125   -0.305183129
 -24658.000000000   -2.220666655   -0.304079798
 -24656.500000000   -1.765380814   -0.302966301
 -24655.000000000   -1.311772799   -0.301842711
 -24653.500000000   -0.859857691   -0.300709103
 -24652.000000000   -0.409650457   -0.299565561
 -24650.500000000    0.038834066   -0.298412169
 -24649.000000000    0.485581171   -0.297249019
 -24647.500000000    0.930576293   -0.296076208
 -24646.000000000    1.373805016   -0.294893838
 -24644.500000000    1.815253081   -0.293702016
 -24643.000000000    2.254906394   -0.292500855
 -24641.500000000    2.692751034   -0.291290473
 -24640.000000000    3.128773264   -0.290070995
 -24638.500000000    3.562959536   -0.288842551
 -24637.000000000    3.995296503   -0.287605278
 -24635.500000000    4.425771025   -0.286359315
 -24634.000000000    4.854370179   -0.285104812
 -24632.500000000    5.281081268   -0.283841922
 -24631.000000000    5.705891830   -0.282570803
 -24629.500000000    6.128789645   -0.281291620
 -24628.000000000    6.549762744   -0.280004544
 -24626.500000000    6.968799419   -0.278709751
 -24625.000000000    7.385888228   -0.277407421
 -24623.500000000    7.801018007   -0.276097741
 -24622.000000000    8.214177873   -0.274780904
 -24620.500000000    8.625357237   -0.273457105
 -24619.000000000    9.034545807   -0.272126546
 -24617.500000000    9.441733598   -0.270789434
 -24616.000000000    9.846910937   -0.269445979
 -24614.500000000   10.250068471   -0.268096397
 -24613.000000000   10.651197173   -0.266740906
 -24611.500000000   11.050288347   -0.265379730
 -24610.000000000   11.447333634   -0.264013095
 -24608.500000000   11.842325019   -0.262641233
 -24607.000000000   12.235254834   -0.261264375
 -24605.500000000   12.626115764   -0.259882758
 -24604.000000000   13.014900849   -0.258496622
 -24602.500000000   13.401603491   -0.257106208
 -24601.000000000   13.786217455   -0.255711760
 -24599.500000000   14.168736875   -0.254313522
 -24598.000000000   14.549156252   -0.252911744
 -24596.500000000   14.927470460   -0.251506672
 -24595.000000000   15.303674747   -0.250098558
 -24593.500000000   15.677764737   -0.248687651
 -24592.000000000   16.049736430   -0.247274203
 -24590.500000000   16.419586200   -0.245858464
 -24589.000000000   16.787310803   -0.244440687
 -24587.500000000   17.152907368   -0.243021122
 -24586.000000000   17.516373402   -0.241600020
 -24584.500000000   17.877706785   -0.240177631
 -24583.000000000   18.236905774   -0.238754202
 -24581.500000000   18.593968995   -0.237329981
 -24580.000000000   18.948895443   -0.235905213
 -24578.500000000   19.301684482   -0.234480142
 -24577.000000000   19.652335837   -0.233055008
 -24575.500000000   20.000849594   -0.231630051
 -24574.000000000   20.347226196   -0.230205506
 -24572.500000000   20.691466435   -0.228781607
 -24571.000000000   21.033571454   -0.227358583
 -24569.500000000   21.373542735   -0.225936660
 -24568.000000000   21.711382098   -0.224516062
 -24566.500000000   22.047091693   -0.223097007
 -24565.000000000   22.380673997   -0.221679709
 -24563.500000000   22.712131804   -0.220264379
 -24562.000000000   23.041468221   -0.218851222
 -24560.500000000   23.368686659   -0.217440440
 -24559.000000000   23.693790828   -0.216032229
 -24557.500000000   24.016784727   -0.214626779
 -24556.000000000   24.337672639   -0.213224277
 -24554.500000000   24.656459122   -0.211824902
 -24553.000000000   24.973148998   -0.210428830
 -24551.500000000   25.287747348   -0.209036229
 -24550.000000000   25.600259504   -0.207647264
 -24548.500000000   25.910691035   -0.206262090
 -24547.000000000   26.219047745   -0.204880859
 -24545.500000000   26.525335657   -0.203503717
 -24544.000000000   26.829561009   -0.202130802
 -24542.500000000   27.131730242   -0.200762246
 -24541.000000000   27.431849991   -0.199398176
 -24539.500000000   27.729927074   -0.198038712
 -24538.000000000   28.025968485   -0.196683965
 -24536.500000000   28.319981382   -0.195334043
 -24535.000000000   28.611973078   -0.193989046
 -24533.500000000   28.901951030   -0.192649067
 -24532.000000000   29.189922832   -0.191314193
 -24530.500000000   29.475896202   -0.189984503
 -24529.000000000   29.759878971   -0.188660071
 -24527.500000000   30.041879079   -0.187340965
 -24526.000000000   30.321904558   -0.186027243
 -24524.500000000   30.599963527   -0.184718960
 -24523.000000000   30.876064181   -0.183416163
 -24521.500000000   31.150214781   -0.182118893
 -24520.000000000   31.422423641   -0.180827184
 -24518.500000000   31.692699128   -0.179541064
 -24517.000000000   31.961049640   -0.178260555
 -24515.500000000   32.227483607   -0.176985673
 -24514.000000000   32.492009477   -0.175716427
 -24512.500000000   32.754635708   -0.174452821
 -24511.000000000   33.015370758   -0.173194852
 -24509.500000000   33.274223080   -0.171942514
 -24508.000000000   33.531201107   -0.170695791
 -24506.500000000   33.786313251   -0.169454666
 -24505.000000000   34.039567891   -0.168219113
 -24503.500000000   34.290973363   -0.166989104
 -24502.000000000   34.540537959   -0.165764604
 -24500.500000000   34.788269911   -0.164545573
 -24499.000000000   35.034177391   -0.163331967
 -24497.500000000   35.278268501   -0.162123738
 -24496.000000000   35.520551265   -0.160920831
 -24494.500000000   35.761033626   -0.159723190
 -24493.000000000   35.999723436   -0.158530752
 -24491.500000000   36.236628452   -0.157343454
 -24490.000000000   36.471756331   -0.156161224
 -24488.500000000   36.705114623   -0.154983991
 -24487.000000000   36.936710766   -0.153811679
 -24485.500000000   37.166552082   -0.152644209
 -24484.000000000   37.394645773   -0.151481498
 -24482.500000000   37.620998912   -0.150323461
 -24481.000000000   37.845618448   -0.149170011
 -24479.500000000   38.068511193   -0.148021058
 -24478.000000000   38.289683824   -0.146876510
 -24476.500000000   38.509142878   -0.145736273
 -24475.000000000   38.726894750   -0.144600250
 -24473.500000000   38.942945688   -0.143468346
 -24472.000000000   39.157301796   -0.142340459
 -24470.500000000   39.369969026   -0.141216491
 -24469.000000000   39.580953179   -0.140096341
 -24467.500000000   39.790259906   -0.138979905
 -24466.000000000   39.997894701   -0.137867082
 -24464.500000000   40.203862906   -0.136757768
 -24463.000000000   40.408169707   -0.135651860
 -24461.500000000   40.610820135   -0.134549253
 -24460.000000000   40.811819066   -0.133449846
 -24458.500000000   41.011171221   -0.132353534
 -24457.000000000   41.208881163   -0.131260214
 -24455.500000000   41.404953307   -0.130169784
 -24454.000000000   41.599391910   -0.129082143
 -24452.500000000   41.792201080   -0.127997190
 -24451.000000000   41.983384773   -0.126914824
 -24449.500000000   42.172946798   -0.125834949
 -24448.000000000   42.360890816   -0.124757466
 -24446.500000000   42.547220345   -0.123682280
 -24445.000000000   42.731938759   -0.122609298
 -24443.500000000   42.915049293   -0.121538426
 -24442.000000000   43.096555046   -0.120469574
 -24440.500000000   43.276458983   -0.119402655
 -24439.000000000   43.454763935   -0.118337582
 -24437.500000000   43.631472609   -0.117274270
 -24436.000000000   43.806587585   -0.116212639
 -24434.500000000   43.980111325   -0.115152608
 -24433.000000000   44.152046172   -0.114094102
 -24431.500000000   44.322394355   -0.113037045
 -24430.000000000   44.491157997   -0.111981367
 -24428.500000000   44.658339112   -0.110926999
 -24427.000000000   44.823939616   -0.109873875
 -24425.500000000   44.987961326   -0.108821931
 -24424.000000000   45.150405969   -0.107771108
 -24422.500000000   45.311275182   -0.106721349
 -24421.000000000   45.470570519   -0.105672599
 -24419.500000000   45.628293457   -0.104624808
 -24418.000000000   45.784445397   -0.103577927
 -24416.500000000   45.939027671   -0.102531912
 -24415.000000000   46.092041545   -0.101486721
 -24413.500000000   46.243488226   -0.100442315
 -24412.000000000   46.393368866   -0.099398660
 -24410.500000000   46.541684565   -0.098355723
 -24409.000000000   46.688436379   -0.097313474
 -24407.500000000   46.833625319   -0.096271888
 -24406.000000000   46.977252364   -0.095230943
 -24404.500000000   47.119318457   -0.094190617
 -24403.000000000   47.259824516   -0.093150895
 -24401.500000000   47.398771436   -0.092111763
 -24400.000000000   47.536160094   -0.091073210
 -24398.500000000   47.671991350   -0.090035228
 -24397.000000000   47.806266060   -0.088997813
 -24395.500000000   47.938985070   -0.087960962
 -24394.000000000   48.070149228   -0.086924676
 -24392.500000000   48.199759384   -0.085888960
 -24391.000000000   48.327816395   -0.084853818
 -24389.500000000   48.454321129   -0.083819259
 -24388.000000000   48.579274470   -0.082785296
 -24386.500000000   48.702677320   -0.081751940
 -24385.000000000   48.824530603   -0.080719209
 -24383.500000000   48.944835269   -0.079687120
 -24382.000000000   49.063592295   -0.078655694
