#! FIELDS energy b1.bias der_energy
#! SET min_energy -25000
#! SET max_energy -23500
#! SET nbins_energy  1001
#! SET periodic_energy false
 -25000.000000000  -96.929867046   -0.057059319
 -24998.500000000  -96.824685509   -0.082535761
 -24997.000000000  -96.684094515   -0.104341494
 -24995.500000000  -96.513295927   -0.122876303
 -24994.000000000  -96.316917511   -0.138506254
 -24992.500000000  -96.099061792   -0.151565975
 -24991.000000000  -95.863351577   -0.162360806
 -24989.500000000  -95.612972357   -0.171168828
 -24988.000000000  -95.350711734   -0.178242783
 -24986.500000000  -95.078996073   -0.183811878
 -24985.000000000  -94.799924505   -0.188083488
 -24983.500000000  -94.515300464   -0.191244762
 -24982.000000000  -94.226660885   -0.193464128
 -24980.500000000  -93.935303204   -0.194892716
 -24979.000000000  -93.642310299   -0.195665689
 -24977.500000000  -93.348573493   -0.195903497
 -24976.000000000  -93.054813727   -0.195713052
 -24974.500000000  -92.761601037   -0.195188827
 -24973.000000000  -92.469372425   -0.194413894
 -24971.500000000  -92.178448234   -0.193460884
 -24970.000000000  -91.889047119   -0.192392893
 -24968.500000000  -91.601299710   -0.191264328
 -24967.000000000  -91.315261052   -0.190121690
 -24965.500000000  -91.030921901   -0.189004312
 -24964.000000000  -90.748218963   -0.187945043
 -24962.500000000  -90.467044130   -0.186970882
 -24961.000000000  -90.187252814   -0.186103570
 -24959.500000000  -89.908671411   -0.185360138
 -24958.000000000  -89.631103983   -0.184753417
 -24956.500000000  -89.354338200   -0.184292507
 -24955.000000000  -89.078150606   -0.183983212
 -24953.500000000  -88.802311262   -0.183828438
 -24952.000000000  -88.526587805   -0.183828567
 -24950.500000000  -88.250748982   -0.183981792
 -24949.000000000  -87.974567695   -0.184284431
 -24947.500000000  -87.697823597   -0.184731209
 -24946.000000000  -87.420305283   -0.185315521
 -24944.500000000  -87.141812103   -0.186029666
 -24943.000000000  -86.862155647   -0.186865064
 -24941.500000000  -86.581160910   -0.187812450
 -24940.000000000  -86.298667185   -0.188862051
 -24938.500000000  -86.014528707   -0.190003744
 -24937.000000000  -85.728615072   -0.191227195
 -24935.500000000  -85.440811451   -0.192521989
 -24934.000000000  -85.151018629   -0.193877740
 -24932.500000000  -84.859152885   -0.195284190
 -24931.000000000  -84.565145735   -0.196731296
 -24929.500000000  -84.268943553   -0.198209302
 -24928.000000000  -83.970507085   -0.199708810
 -24926.500000000  -83.669810876   -0.201220827
 -24925.000000000  -83.366842626   -0.202736817
 -24923.500000000  -83.061602472   -0.204248733
 -24922.000000000  -82.754102233   -0.205749054
 -24920.500000000  -82.444364604   -0.207230802
 -24919.000000000  -82.132422330   -0.208687561
 -24917.500000000  -81.818317346   -0.210113489
 -24916.000000000  -81.502099919   -0.211503324
 -24914.500000000  -81.183827772   -0.212852383
 -24913.000000000  -80.863565220   -0.214156562
 -24911.500000000  -80.541382302   -0.215412329
 -24910.000000000  -80.217353933   -0.216616713
 -24908.500000000  -79.891559074   -0.217767292
 -24907.000000000  -79.564079914   -0.218862175
 -24905.500000000  -79.235001090   -0.219899990
 -24904.000000000  -78.904408924   -0.220879859
 -24902.500000000  -78.572390695   -0.221801378
 -24901.000000000  -78.239033947   -0.222664597
 -24899.500000000  -77.904425824   -0.223469991
 -24898.000000000  -77.568652451   -0.224218443
 -24896.500000000  -77.231798343   -0.224911210
 -24895.000000000  -76.893945863   -0.225549904
 -24893.500000000  -76.555174706   -0.226136461
 -24892.000000000  -76.215561434   -0.226673119
 -24890.500000000  -75.875179046   -0.227162389
 -24889.000000000  -75.534096586   -0.227607028
 -24887.500000000  -75.192378791   -0.228010015
 -24886.000000000  -74.850085782   -0.228374525
 -24884.500000000  -74.507272784   -0.228703904
 -24883.000000000  -74.163989890   -0.229001644
 -24881.500000000  -73.820281865   -0.229271359
 -24880.000000000  -73.476187970   -0.229516762
 -24878.500000000  -73.131741842   -0.229741642
 -24877.000000000  -72.786971385   -0.229949844
 -24875.500000000  -72.441898711   -0.230145246
 -24874.000000000  -72.096540099   -0.230331742
 -24872.500000000  -71.750905993   -0.230513220
 -24871.000000000  -71.405001016   -0.230693544
 -24869.500000000  -71.058824023   -0.230876541
 -24868.000000000  -70.712368171   -0.231065980
 -24866.500000000  -70.365621011   -0.231265560
 -24865.000000000  -70.018564611   -0.231478895
 -24863.500000000  -69.671175690   -0.231709499
 -24862.000000000  -69.323425774   -0.231960779
 -24860.500000000  -68.975281373   -0.232236017
 -24859.000000000  -68.626704166   -0.232538366
 -24857.500000000  -68.277651212   -0.232870837
 -24856.000000000  -67.928075162   -0.233236292
 -24854.500000000  -67.577924490   -0.233637436
 -24853.000000000  -67.227143735   -0.234076812
 -24851.500000000  -66.875673748   -0.234556794
 -24850.000000000  -66.523451947   -0.235079582
 -24848.500000000  -66.170412585   -0.235647199
 -24847.000000000  -65.816487012   -0.236261487
 -24845.500000000  -65.461603956   -0.236924105
 -24844.000000000  -65.105689790   -0.237636530
 -24842.500000000  -64.748668816   -0.238400049
 -24841.000000000  -64.390463542   -0.239215765
 -24839.500000000  -64.030994959   -0.240084598
 -24838.000000000  -63.670182822   -0.241007278
 -24836.500000000  -63.307945922   -0.241984358
 -24835.000000000  -62.944202363   -0.243016204
 -24833.500000000  -62.578869828   -0.244103008
 -24832.000000000  -62.211865849   -0.245244785
 -24830.500000000  -61.843108064   -0.246441376
 -24829.000000000  -61.472514472   -0.247692459
 -24827.500000000  -61.100003684   -0.248997543
 -24826.000000000  -60.725495164   -0.250355981
 -24824.500000000  -60.348909463   -0.251766971
 -24823.000000000  -59.970168449   -0.253229562
 -24821.500000000  -59.589195521   -0.254742661
 -24820.000000000  -59.205915826   -0.256305036
 -24818.500000000  -58.820256455   -0.257915324
 -24817.000000000  -58.432146640   -0.259572037
 -24815.500000000  -58.041517932   -0.261273569
 -24814.000000000  -57.648304380   -0.263018200
 -24812.500000000  -57.252442693   -0.264804105
 -24811.000000000  -56.853872390   -0.266629359
 -24809.500000000  -56.452535949   -0.268491945
 -24808.000000000  -56.048378938   -0.270389762
 -24806.500000000  -55.641350139   -0.272320627
 -24805.000000000  -55.231401658   -0.274282288
 -24803.500000000  -54.818489034   -0.276272427
 -24802.000000000  -54.402571328   -0.278288665
 -24800.500000000  -53.983611202   -0.280328576
 -24799.000000000  -53.561575000   -0.282389685
 -24797.500000000  -53.136432803   -0.284469480
 -24796.000000000  -52.708158487   -0.286565418
 -24794.500000000  -52.276729762   -0.288674929
 -24793.000000000  -51.842128208   -0.290795423
 -24791.500000000  -51.404339301   -0.292924299
 -24790.000000000  -50.963352425   -0.295058947
 -24788.500000000  -50.519160879   -0.297196757
 -24787.000000000  -50.071761878   -0.299335120
 -24785.500000000  -49.621156539   -0.301471442
 -24784.000000000  -49.167349865   -0.303603139
 -24782.500000000  -48.710350715   -0.305727651
 -24781.000000000  -48.250171775   -0.307842439
 -24779.500000000  -47.786829512   -0.309944999
 -24778.000000000  -47.320344130   -0.312032856
 -24776.500000000  -46.850739512   -0.314103578
 -24775.000000000  -46.378043159   -0.316154774
 -24773.500000000  -45.902286125   -0.318184100
 -24772.000000000  -45.423502942   -0.320189262
 -24770.500000000  -44.941731541   -0.322168022
 -24769.000000000  -44.457013171   -0.324118196
 -24767.500000000  -43.969392308   -0.326037663
 -24766.000000000  -43.478916566   -0.327924365
 -24764.500000000  -42.985636594   -0.329776308
 -24763.000000000  -42.489605983   -0.331591569
 -24761.500000000  -41.990881156   -0.333368294
 -24760.000000000  -41.489521261   -0.335104701
 -24758.500000000  -40.985588067   -0.336799083
 -24757.000000000  -40.479145841   -0.338449810
 -24755.500000000  -39.970261244   -0.340055326
 -24754.000000000  -39.459003206   -0.341614158
 -24752.500000000  -38.945442810   -0.343124910
 -24751.000000000  -38.429653175   -0.344586266
 -24749.500000000  -37.911709330   -0.345996991
 -24748.000000000  -37.391688094   -0.347355934
 -24746.500000000  -36.869667955   -0.348662023
 -24745.000000000  -36.345728947   -0.349914269
 -24743.500000000  -35.819952526   -0.351111764
 -24742.000000000  -35.292421446   -0.352253682
 -24740.500000000  -34.763219642   -0.353339279
 -24739.000000000  -34.232432104   -0.354367890
 -24737.500000000  -33.700144757   -0.355338933
 -24736.000000000  -33.166444344   -0.356251901
 -24734.500000000  -32.631418305   -0.357106369
 -24733.000000000  -32.095154662   -0.357901988
 -24731.500000000  -31.557741904   -0.358638483
 -24730.000000000  -31.019268873   -0.359315658
 -24728.500000000  -30.479824653   -0.359933387
 -24727.000000000  -29.939498462   -0.360491617
 -24725.500000000  -29.398379544   -0.360990365
 -24724.000000000  -28.856557065   -0.361429718
 -24722.500000000  -28.314120013   -0.361809828
 -24721.000000000  -27.771157096   -0.362130912
 -24719.500000000  -27.227756649   -0.362393253
 -24718.000000000  -26.684006538   -0.362597192
 -24716.500000000  -26.139994073   -0.362743131
 -24715.000000000  -25.595805917   -0.362831527
 -24713.500000000  -25.051528006   -0.362862895
 -24712.000000000  -24.507245464   -0.362837800
 -24710.500000000  -23.963042528   -0.362756860
 -24709.000000000  -23.419002476   -0.362620738
 -24707.500000000  -22.875207549   -0.362430147
 -24706.000000000  -22.331738894   -0.362185840
 -24704.500000000  -21.788676488   -0.361888615
 -24703.000000000  -21.246099090   -0.361539307
 -24701.500000000  -20.704084173   -0.361138788
 -24700.000000000  -20.162707877   -0.360687966
 -24698.500000000  -19.622044957   -0.360187779
 -24697.000000000  -19.082168737   -0.359639198
 -24695.500000000  -18.543151064   -0.359043217
 -24694.000000000  -18.005062273   -0.358400861
 -24692.500000000  -17.467971145   -0.357713175
 -24691.000000000  -16.931944881   -0.356981224
 -24689.500000000  -16.397049063   -0.356206094
 -24688.000000000  -15.863347638   -0.355388887
 -24686.500000000  -15.330902884   -0.354530718
 -24685.000000000  -14.799775401   -0.353632716
 -24683.500000000  -14.270024084   -0.352696020
 -24682.000000000  -13.741706116   -0.351721775
 -24680.500000000  -13.214876955   -0.350711137
 -24679.000000000  -12.689590325   -0.349665261
 -24677.500000000  -12.165898212   -0.348585307
 -24676.000000000  -11.643850861   -0.347472437
 -24674.500000000  -11.123496779   -0.346327809
 -24673.000000000  -10.604882734   -0.345152580
 -24671.500000000  -10.088053763   -0.343947902
 -24670.000000000   -9.573053179   -0.342714921
 -24668.500000000   -9.059922583   -0.341454774
 -24667.000000000   -8.548701876   -0.340168591
 -24665.500000000   -8.039429270   -0.338857489
 -24664.000000000   -7.532141313   -0.337522577
 -24662.500000000   -7.026872899   -0.336164945
 -24661.000000000   -6.523657296   -0.334785674
 -24659.500000000   -6.022526164   -0.333385827
 -24658.000000000   -5.523509581   -0.331966448
 -24656.500000000   -5.026636069   -0.330528568
 -24655.000000000   -4.531932622   -0.329073196
 -24653.500000000   -4.039424734   -0.327601320
 -24652.000000000   -3.549136427   -0.326113912
 -24650.500000000   -3.061090289   -0.324611919
 -24649.000000000   -2.575307498   -0.323096267
 -24647.500000000   -2.091807864   -0.321567860
 -24646.000000000   -1.610609857   -0.320027576
 -24644.500000000   -1.131730645   -0.318476273
 -24643.000000000   -0.655186131   -0.316914782
 -24641.500000000   -0.180990988   -0.315343911
 -24640.000000000    0.290841302   -0.313764440
 -24638.500000000    0.760298410   -0.312177126
 -24637.000000000    1.227369125   -0.310582701
 -24635.500000000    1.692043309   -0.308981868
 -24634.000000000    2.154311866   -0.307375308
 -24632.500000000    2.614166695   -0.305763672
 -24631.000000000    3.071600657   -0.304147587
 -24629.500000000    3.526607533   -0.302527655
 -24628.000000000    3.979181985   -0.300904449
 -24626.500000000    4.429319518   -0.299278518
 -24625.000000000    4.877016438   -0.297650385
 -24623.500000000    5.322269821   -0.296020547
 -24622.000000000    5.765077464   -0.294389477
 -24620.500000000    6.205437858   -0.292757620
 -24619.000000000    6.643350144   -0.291125400
 -24617.500000000    7.078814077   -0.289493214
 -24616.000000000    7.511829991   -0.287861436
 -24614.500000000    7.942398765   -0.286230416
 -24613.000000000    8.370521784   -0.284600482
 -24611.500000000    8.796200906   -0.282971938
 -24610.000000000    9.219438433   -0.281345066
 -24608.500000000    9.640237070   -0.279720127
 -24607.000000000   10.058599900   -0.278097362
 -24605.500000000   10.474530352   -0.276476989
 -24604.000000000   10.888032165   -0.274859209
 -24602.500000000   11.299109367   -0.273244203
 -24601.000000000   11.707766241   -0.271632131
 -24599.500000000   12.114007301   -0.270023139
 -24598.000000000   12.517837262   -0.268417354
 -24596.500000000   12.919261021   -0.266814885
 -24595.000000000   13.318283623   -0.265215828
 -24593.500000000   13.714910250   -0.263620262
 -24592.000000000   14.109146187   -0.262028252
 -24590.500000000   14.500996810   -0.260439850
 -24589.000000000   14.890467560   -0.258855094
 -24587.500000000   15.277563929   -0.257274011
 -24586.000000000   15.662291437   -0.255696615
 -24584.500000000   16.044655621   -0.254122911
 -24583.000000000   16.424662012   -0.252552891
 -24581.500000000   16.802316130   -0.250986542
 -24580.000000000   17.177623461   -0.249423838
 -24578.500000000   17.550589450   -0.247864748
 -24577.000000000   17.921219491   -0.246309232
 -24575.500000000   18.289518911   -0.244757245
 -24574.000000000   18.655492964   -0.243208735
 -24572.500000000   19.019146824   -0.241663644
 -24571.000000000   19.380485577   -0.240121913
 -24569.500000000   19.739514210   -0.238583475
 -24568.000000000   20.096237615   -0.237048262
 -24566.500000000   20.450660574   -0.235516203
 -24565.000000000   20.802787764   -0.233987224
 -24563.500000000   21.152623750   -0.232461252
 -24562.000000000   21.500172985   -0.230938210
 -24560.500000000   21.845439807   -0.229418022
 -24559.000000000   22.188428441   -0.227900614
 -24557.500000000   22.529143000   -0.226385909
 -24556.000000000   22.867587484   -0.224873835
 -24554.500000000   23.203765784   -0.223364319
 -24553.000000000   23.537681685   -0.221857292
 -24551.500000000   23.869338870   -0.220352685
 -24550.000000000   24.198740920   -0.218850436
 -24548.500000000   24.525891324   -0.217350482
 -24547.000000000   24.850793484   -0.215852766
 -24545.500000000   25.173450715   -0.214357236
 -24544.000000000   25.493866258   -0.212863841
 -24542.500000000   25.812043285   -0.211372540
 -24541.000000000   26.127984904   -0.209883291
 -24539.500000000   26.441694167   -0.208396061
 -24538.000000000   26.753174082   -0.206910822
 -24536.500000000   27.062427617   -0.205427550
 -24535.000000000   27.369457709   -0.203946230
 -24533.500000000   27.674267275   -0.202466848
 -24532.000000000   27.976859221   -0.200989402
 -24530.500000000   28.277236448   -0.199513891
 -24529.000000000   28.575401866   -0.198040324
 -24527.500000000   28.871358399   -0.196568715
 -24526.000000000   29.165108999   -0.195099084
 -24524.500000000   29.456656652   -0.193631458
 -24523.000000000   29.746004392   -0.192165871
 -24521.500000000   30.033155305   -0.190702363
 -24520.000000000   30.318112544   -0.189240981
 -24518.500000000   30.600879336   -0.187781776
 -24517.000000000   30.881458991   -0.186324810
 -24515.500000000   31.159854916   -0.184870146
 -24514.000000000   31.436070617   -0.183417857
 -24512.500000000   31.710109714   -0.181968021
 -24511.000000000   31.981975948   -0.180520721
 -24509.500000000   32.251673188   -0.179076046
 -24508.000000000   32.519205445   -0.177634091
 -24506.500000000   32.784576872   -0.176194957
 -24505.000000000   33.047791779   -0.174758749
 -24503.500000000   33.308854637   -0.173325577
 -24502.000000000   33.567770087   -0.171895557
 -24500.500000000   33.824542945   -0.170468808
 -24499.000000000   34.079178210   -0.169045455
 -24497.500000000   34.331681070   -0.167625624
 -24496.000000000   34.582056909   -0.166209448
 -24494.500000000   34.830311310   -0.164797062
 -24493.000000000   35.076450059   -0.163388604
 -24491.500000000   35.320479156   -0.161984215
 -24490.000000000   35.562404810   -0.160584038
 -24488.500000000   35.802233450   -0.159188221
 -24487.000000000   36.039971725   -0.157796910
 -24485.500000000   36.275626507   -0.156410254
 -24484.000000000   36.509204892   -0.155028406
 -24482.500000000   36.740714204   -0.153651516
 -24481.000000000   36.970161995   -0.152279737
 -24479.500000000   37.197556045   -0.150913221
 -24478.000000000   37.422904366   -0.149552121
 -24476.500000000   37.646215194   -0.148196590
 -24475.000000000   37.867496997   -0.146846779
 -24473.500000000   38.086758467   -0.145502839
 -24472.000000000   38.304008524   -0.144164919
 -24470.500000000   38.519256308   -0.142833166
 -24469.000000000   38.732511179   -0.141507727
 -24467.500000000   38.943782716   -0.140188744
 -24466.000000000   39.153080708   -0.138876358
 -24464.500000000   39.360415156   -0.137570707
 -24463.000000000   39.565796262   -0.136271925
 -24461.500000000   39.769234431   -0.134980144
 -24460.000000000   39.970740257   -0.133695490
 -24458.500000000   40.170324525   -0.132418086
 -24457.000000000   40.367998200   -0.131148052
 -24455.500000000   40.563772421   -0.129885500
 -24454.000000000   40.757658496   -0.128630541
 -24452.500000000   40.949667891   -0.127383277
 -24451.000000000   41.139812224   -0.126143807
 -24449.500000000   41.328103257   -0.124912225
 -24448.000000000   41.514552886   -0.123688616
 -24446.500000000   41.699173134   -0.122473062
 -24445.000000000   41.881976138   -0.121265638
 -24443.500000000   42.062974146   -0.120066410
 -24442.000000000   42.242179499   -0.118875442
 -24440.500000000   42.419604628   -0.117692786
 -24439.000000000   42.595262039   -0.116518492
 -24437.500000000   42.769164305   -0.115352599
 -24436.000000000   42.941324054   -0.114195141
 -24434.500000000   43.111753959   -0.113046144
 -24433.000000000   43.280466726   -0.111905626
 -24431.500000000   43.447475083   -0.110773599
 -24430.000000000   43.612791769   -0.109650065
 -24428.500000000   43.776429523   -0.108535020
 -24427.000000000   43.938401069   -0.107428454
 -24425.500000000   44.098719112   -0.106330344
 -24424.000000000   44.257396318   -0.105240666
 -24422.500000000   44.414445306   -0.104159382
 -24421.000000000   44.569878639   -0.103086449
 -24419.500000000   44.723708805   -0.102021818
 -24418.000000000   44.875948215   -0.100965430
 -24416.500000000   45.026609183   -0.099917218
 -24415.000000000   45.175703920   -0.098877108
 -24413.500000000   45.323244519   -0.097845020
 -24412.000000000   45.469242947   -0.096820864
 -24410.500000000   45.613711030   -0.095804545
 -24409.000000000   45.756660447   -0.094795958
 -24407.500000000   45.898102715   -0.093794993
 -24406.000000000   46.038049180   -0.092801534
 -24404.500000000   46.176511007   -0.091815455
 -24403.000000000   46.313499168   -0.090836625
 -24401.500000000   46.449024437   -0.089864907
 -24400.000000000   46.583097372   -0.088900156
 -24398.500000000   46.715728315   -0.087942224
 -24397.000000000   46.846927374   -0.086990953
 -24395.500000000   46.976704424   -0.086046182
 -24394.000000000   47.105069088   -0.085107744
 -24392.500000000   47.232030736   -0.084175466
 -24391.000000000   47.357598476   -0.083249170
 -24389.500000000   47.481781146   -0.082328674
 -24388.000000000   47.604587305   -0.081413791
 -24386.500000000   47.726025230   -0.080504329
 -24385.000000000   47.846102906   -0.079600094
 -24383.500000000   47.964828024   -0.078700885
 -24382.000000000   48.082207972   -0.077806500
