#! FIELDS energy b1.bias der_energy
#! SET min_energy -25000
#! SET max_energy -23500
#! SET nbins_energy  1001
#! SET periodic_energy false
 -25000.000000000 -102.063945389   -0.189685886
 -24998.500000000 -101.778942890   -0.190416483
 -24997.000000000 -101.492428650   -0.191682123
 -24995.500000000 -101.203684102   -0.193373027
 -24994.000000000 -100.912145642   -0.195392176
 -24992.500000000 -100.617386289   -0.197654255
 -24991.000000000 -100.319098867   -0.200084681
 -24989.500000000 -100.017080608   -0.202618679
 -24988.000000000  -99.711219091   -0.205200426
 -24986.500000000  -99.401479417   -0.207782246
 -24985.000000000  -99.087892562   -0.210323868
 -24983.500000000  -98.770544798   -0.212791721
 -24982.000000000  -98.449568130   -0.215158291
 -24980.500000000  -98.125131679   -0.217401513
 -24979.000000000  -97.797433924   -0.219504213
 -24977.500000000  -97.466695770   -0.221453583
 -24976.000000000  -97.133154355   -0.223240707
 -24974.500000000  -96.797057560   -0.224860108
 -24973.000000000  -96.458659159   -0.226309339
 -24971.500000000  -96.118214564   -0.227588603
 -24970.000000000  -95.775977115   -0.228700404
 -24968.500000000  -95.432194870   -0.229649226
 -24967.000000000  -95.087107865   -0.230441238
 -24965.500000000  -94.740945787   -0.231084026
 -24964.000000000  -94.393926036   -0.231586346
 -24962.500000000  -94.046252143   -0.231957902
 -24961.000000000  -93.698112499   -0.232209139
 -24959.500000000  -93.349679386   -0.232351067
 -24958.000000000  -93.001108255   -0.232395088
 -24956.500000000  -92.652537252   -0.232352850
 -24955.000000000  -92.304086952   -0.232236116
 -24953.500000000  -91.955860274   -0.232056640
 -24952.000000000  -91.607942576   -0.231826069
 -24950.500000000  -91.260401887   -0.231555848
 -24949.000000000  -90.913289273   -0.231257135
 -24947.500000000  -90.566639317   -0.230940739
 -24946.000000000  -90.220470692   -0.230617056
 -24944.500000000  -89.874786819   -0.230296017
 -24943.000000000  -89.529576596   -0.229987051
 -24941.500000000  -89.184815178   -0.229699045
 -24940.000000000  -88.840464809   -0.229440323
 -24938.500000000  -88.496475688   -0.229218620
 -24937.000000000  -88.152786861   -0.229041071
 -24935.500000000  -87.809327127   -0.228914198
 -24934.000000000  -87.466015962   -0.228843913
 -24932.500000000  -87.122764438   -0.228835508
 -24931.000000000  -86.779476145   -0.228893668
 -24929.500000000  -86.436048100   -0.229022474
 -24928.000000000  -86.092371645   -0.229225415
 -24926.500000000  -85.748333324   -0.229505400
 -24925.000000000  -85.403815740   -0.229864777
 -24923.500000000  -85.058698388   -0.230305347
 -24922.000000000  -84.712858454   -0.230828390
 -24920.500000000  -84.366171588   -0.231434678
 -24919.000000000  -84.018512643   -0.232124506
 -24917.500000000  -83.669756374   -0.232897711
 -24916.000000000  -83.319778112   -0.233753697
 -24914.500000000  -82.968454387   -0.234691462
 -24913.000000000  -82.615663523   -0.235709622
 -24911.500000000  -82.261286188   -0.236806438
 -24910.000000000  -81.905205911   -0.237979841
 -24908.500000000  -81.547309552   -0.239227460
 -24907.000000000  -81.187487742   -0.240546647
 -24905.500000000  -80.825635275   -0.241934500
 -24904.000000000  -80.461651470   -0.243387892
 -24902.500000000  -80.095440490   -0.244903496
 -24901.000000000  -79.726911628   -0.246477805
 -24899.500000000  -79.355979551   -0.248107160
 -24898.000000000  -78.982564517   -0.249787772
 -24896.500000000  -78.606592553   -0.251515743
 -24895.000000000  -78.227995601   -0.253287087
 -24893.500000000  -77.846711632   -0.255097753
 -24892.000000000  -77.462684730   -0.256943644
 -24890.500000000  -77.075865151   -0.258820634
 -24889.000000000  -76.686209346   -0.260724589
 -24887.500000000  -76.293679966   -0.262651381
 -24886.000000000  -75.898245838   -0.264596906
 -24884.500000000  -75.499881916   -0.266557099
 -24883.000000000  -75.098569215   -0.268527947
 -24881.500000000  -74.694294721   -0.270505505
 -24880.000000000  -74.287051280   -0.272485905
 -24878.500000000  -73.876837476   -0.274465368
 -24877.000000000  -73.463657486   -0.276440216
 -24875.500000000  -73.047520922   -0.278406882
 -24874.000000000  -72.628442659   -0.280361916
 -24872.500000000  -72.206442655   -0.282301994
 -24871.000000000  -71.781545753   -0.284223926
 -24869.500000000  -71.353781478   -0.286124661
 -24868.000000000  -70.923183825   -0.288001292
 -24866.500000000  -70.489791036   -0.289851061
 -24865.000000000  -70.053645377   -0.291671364
 -24863.500000000  -69.614792905   -0.293459750
 -24862.000000000  -69.173283234   -0.295213928
 -24860.500000000  -68.729169292   -0.296931768
 -24859.000000000  -68.282507089   -0.298611296
 -24857.500000000  -67.833355466   -0.300250705
 -24856.000000000  -67.381775862   -0.301848344
 -24854.500000000  -66.927832067   -0.303402724
 -24853.000000000  -66.471589986   -0.304912517
 -24851.500000000  -66.013117400   -0.306376548
 -24850.000000000  -65.552483733   -0.307793802
 -24848.500000000  -65.089759820   -0.309163411
 -24847.000000000  -64.625017683   -0.310484660
 -24845.500000000  -64.158330307   -0.311756980
 -24844.000000000  -63.689771425   -0.312979942
 -24842.500000000  -63.219415307   -0.314153258
 -24841.000000000  -62.747336555   -0.315276772
 -24839.500000000  -62.273609907   -0.316350458
 -24838.000000000  -61.798310047   -0.317374415
 -24836.500000000  -61.321511418   -0.318348862
 -24835.000000000  -60.843288052   -0.319274130
 -24833.500000000  -60.363713397   -0.320150663
 -24832.000000000  -59.882860161   -0.320979005
 -24830.500000000  -59.400800158   -0.321759800
 -24829.000000000  -58.917604167   -0.322493785
 -24827.500000000  -58.433341798   -0.323181782
 -24826.000000000  -57.948081364   -0.323824696
 -24824.500000000  -57.461889765   -0.324423504
 -24823.000000000  -56.974832379   -0.324979257
 -24821.500000000  -56.486972965   -0.325493067
 -24820.000000000  -55.998373567   -0.325966102
 -24818.500000000  -55.509094434   -0.326399587
 -24817.000000000  -55.019193948   -0.326794789
 -24815.500000000  -54.528728553   -0.327153020
 -24814.000000000  -54.037752703   -0.327475623
 -24812.500000000  -53.546318810   -0.327763975
 -24811.000000000  -53.054477204   -0.328019476
 -24809.500000000  -52.562276097   -0.328243547
 -24808.000000000  -52.069761561   -0.328437622
 -24806.500000000  -51.576977507   -0.328603145
 -24805.000000000  -51.083965677   -0.328741566
 -24803.500000000  -50.590765634   -0.328854336
 -24802.000000000  -50.097414773   -0.328942899
 -24800.500000000  -49.603948322   -0.329008694
 -24799.000000000  -49.110399362   -0.329053146
 -24797.500000000  -48.616798850   -0.329077664
 -24796.000000000  -48.123175642   -0.329083637
 -24794.500000000  -47.629556527   -0.329072431
 -24793.000000000  -47.135966268   -0.329045385
 -24791.500000000  -46.642427639   -0.329003806
 -24790.000000000  -46.148961478   -0.328948971
 -24788.500000000  -45.655586735   -0.328882118
 -24787.000000000  -45.162320530   -0.328804451
 -24785.500000000  -44.669178210   -0.328717128
 -24784.000000000  -44.176173414   -0.328621267
 -24782.500000000  -43.683318140   -0.328517942
 -24781.000000000  -43.190622808   -0.328408176
 -24779.500000000  -42.698096342   -0.328292948
 -24778.000000000  -42.205746232   -0.328173183
 -24776.500000000  -41.713578621   -0.328049759
 -24775.000000000  -41.221598374   -0.327923497
 -24773.500000000  -40.729809163   -0.327795168
 -24772.000000000  -40.238213544   -0.327665489
 -24770.500000000  -39.746813040   -0.327535120
 -24769.000000000  -39.255608224   -0.327404668
 -24767.500000000  -38.764598801   -0.327274684
 -24766.000000000  -38.273783690   -0.327145663
 -24764.500000000  -37.783161109   -0.327018047
 -24763.000000000  -37.292728655   -0.326892219
 -24761.500000000  -36.802483390   -0.326768512
 -24760.000000000  -36.312421920   -0.326647200
 -24758.500000000  -35.822540479   -0.326528507
 -24757.000000000  -35.332835005   -0.326412601
 -24755.500000000  -34.843301221   -0.326299601
 -24754.000000000  -34.353934716   -0.326189571
 -24752.500000000  -33.864731014   -0.326082529
 -24751.000000000  -33.375685652   -0.325978440
 -24749.500000000  -32.886794255   -0.325877226
 -24748.000000000  -32.398052602   -0.325778757
 -24746.500000000  -31.909456695   -0.325682863
 -24745.000000000  -31.421002831   -0.325589329
 -24743.500000000  -30.932687656   -0.325497897
 -24742.000000000  -30.444508236   -0.325408270
 -24740.500000000  -29.956462110   -0.325320113
 -24739.000000000  -29.468547349   -0.325233053
 -24737.500000000  -28.980762607   -0.325146682
 -24736.000000000  -28.493107176   -0.325060562
 -24734.500000000  -28.005581030   -0.324974221
 -24733.000000000  -27.518184874   -0.324887158
 -24731.500000000  -27.030920182   -0.324798845
 -24730.000000000  -26.543789239   -0.324708731
 -24728.500000000  -26.056795178   -0.324616239
 -24727.000000000  -25.569942011   -0.324520771
 -24725.500000000  -25.083234661   -0.324421712
 -24724.000000000  -24.596678988   -0.324318427
 -24722.500000000  -24.110281815   -0.324210269
 -24721.000000000  -23.624050949   -0.324096574
 -24719.500000000  -23.137995197   -0.323976671
 -24718.000000000  -22.652124382   -0.323849876
 -24716.500000000  -22.166449359   -0.323715501
 -24715.000000000  -21.680982018   -0.323572849
 -24713.500000000  -21.195735297   -0.323421224
 -24712.000000000  -20.710723181   -0.323259926
 -24710.500000000  -20.225960705   -0.323088256
 -24709.000000000  -19.741463949   -0.322905515
 -24707.500000000  -19.257250040   -0.322711013
 -24706.000000000  -18.773337136   -0.322504060
 -24704.500000000  -18.289744426   -0.322283977
 -24703.000000000  -17.806492107   -0.322050093
 -24701.500000000  -17.323601379   -0.321801747
 -24700.000000000  -16.841094422   -0.321538291
 -24698.500000000  -16.358994378   -0.321259091
 -24697.000000000  -15.877325331   -0.320963527
 -24695.500000000  -15.396112281   -0.320650995
 -24694.000000000  -14.915381122   -0.320320911
 -24692.500000000  -14.435158610   -0.319972706
 -24691.000000000  -13.955472337   -0.319605836
 -24689.500000000  -13.476350699   -0.319219774
 -24688.000000000  -12.997822862   -0.318814018
 -24686.500000000  -12.519918732   -0.318388088
 -24685.000000000  -12.042668913   -0.317941529
 -24683.500000000  -11.566104675   -0.317473910
 -24682.000000000  -11.090257914   -0.316984828
 -24680.500000000  -10.615161113   -0.316473903
 -24679.000000000  -10.140847301   -0.315940786
 -24677.500000000   -9.667350013   -0.315385154
 -24676.000000000   -9.194703245   -0.314806712
 -24674.500000000   -8.722941415   -0.314205195
 -24673.000000000   -8.252099317   -0.313580366
 -24671.500000000   -7.782212077   -0.312932019
 -24670.000000000   -7.313315108   -0.312259977
 -24668.500000000   -6.845444067   -0.311564093
 -24667.000000000   -6.378634809   -0.310844250
 -24665.500000000   -5.912923341   -0.310100361
 -24664.000000000   -5.448345777   -0.309332371
 -24662.500000000   -4.984938293   -0.308540252
 -24661.000000000   -4.522737082   -0.307724010
 -24659.500000000   -4.061778308   -0.306883678
 -24658.000000000   -3.602098060   -0.306019320
 -24656.500000000   -3.143732314   -0.305131029
 -24655.000000000   -2.686716880   -0.304218927
 -24653.500000000   -2.231087364   -0.303283165
 -24652.000000000   -1.776879126   -0.302323922
 -24650.500000000   -1.324127235   -0.301341406
 -24649.000000000   -0.872866428   -0.300335851
 -24647.500000000   -0.423131071   -0.299307519
 -24646.000000000    0.025044882   -0.298256696
 -24644.500000000    0.471627928   -0.297183696
 -24643.000000000    0.916585050   -0.296088857
 -24641.500000000    1.359883760   -0.294972541
 -24640.000000000    1.801492126   -0.293835132
 -24638.500000000    2.241378814   -0.292677039
 -24637.000000000    2.679513117   -0.291498692
 -24635.500000000    3.115864988   -0.290300541
 -24634.000000000    3.550405072   -0.289083056
 -24632.500000000    3.983104734   -0.287846728
 -24631.000000000    4.413936086   -0.286592063
 -24629.500000000    4.842872018   -0.285319588
 -24628.000000000    5.269886216   -0.284029844
 -24626.500000000    5.694953193   -0.282723387
 -24625.000000000    6.118048307   -0.281400790
 -24623.500000000    6.539147783   -0.280062635
 -24622.000000000    6.958228732   -0.278709521
 -24620.500000000    7.375269169   -0.277342054
 -24619.000000000    7.790248027   -0.275960854
 -24617.500000000    8.203145178   -0.274566548
 -24616.000000000    8.613941437   -0.273159772
 -24614.500000000    9.022618581   -0.271741169
 -24613.000000000    9.429159355   -0.270311387
 -24611.500000000    9.833547480   -0.268871081
 -24610.000000000   10.235767664   -0.267420909
 -24608.500000000   10.635805604   -0.265961532
 -24607.000000000   11.033647988   -0.264493612
 -24605.500000000   11.429282502   -0.263017815
 -24604.000000000   11.822697827   -0.261534804
 -24602.500000000   12.213883640   -0.260045243
 -24601.000000000   12.602830611   -0.258549792
 -24599.500000000   12.989530400   -0.257049109
 -24598.000000000   13.373975651   -0.255543850
 -24596.500000000   13.756159986   -0.254034663
 -24595.000000000   14.136077998   -0.252522192
 -24593.500000000   14.513725239   -0.251007075
 -24592.000000000   14.889098214   -0.249489941
 -24590.500000000   15.262194365   -0.247971412
 -24589.000000000   15.633012060   -0.246452101
 -24587.500000000   16.001550579   -0.244932610
 -24586.000000000   16.367810097   -0.243413531
 -24584.500000000   16.731791669   -0.241895445
 -24583.000000000   17.093497212   -0.240378920
 -24581.500000000   17.452929487   -0.238864512
 -24580.000000000   17.810092078   -0.237352764
 -24578.500000000   18.164989373   -0.235844203
 -24577.000000000   18.517626540   -0.234339345
 -24575.500000000   18.868009507   -0.232838686
 -24574.000000000   19.216144940   -0.231342711
 -24572.500000000   19.562040215   -0.229851885
 -24571.000000000   19.905703396   -0.228366660
 -24569.500000000   20.247143210   -0.226887467
 -24568.000000000   20.586369020   -0.225414722
 -24566.500000000   20.923390799   -0.223948823
 -24565.000000000   21.258219102   -0.222490149
 -24563.500000000   21.590865040   -0.221039061
 -24562.000000000   21.921340251   -0.219595902
 -24560.500000000   22.249656871   -0.218160993
 -24559.000000000   22.575827508   -0.216734640
 -24557.500000000   22.899865211   -0.215317126
 -24556.000000000   23.221783439   -0.213908717
 -24554.500000000   23.541596037   -0.212509658
 -24553.000000000   23.859317202   -0.211120175
 -24551.500000000   24.174961453   -0.209740474
 -24550.000000000   24.488543607   -0.208370740
 -24548.500000000   24.800078741   -0.207011142
 -24547.000000000   25.109582172   -0.205661824
 -24545.500000000   25.417069419   -0.204322916
 -24544.000000000   25.722556179   -0.202994524
 -24542.500000000   26.026058294   -0.201676738
 -24541.000000000   26.327591729   -0.200369625
 -24539.500000000   26.627172533   -0.199073238
 -24538.000000000   26.924816822   -0.197787608
 -24536.500000000   27.220540742   -0.196512747
 -24535.000000000   27.514360446   -0.195248651
 -24533.500000000   27.806292067   -0.193995297
 -24532.000000000   28.096351689   -0.192752645
 -24530.500000000   28.384555323   -0.191520636
 -24529.000000000   28.670918880   -0.190299196
 -24527.500000000   28.955458149   -0.189088234
 -24526.000000000   29.238188767   -0.187887643
 -24524.500000000   29.519126201   -0.186697300
 -24523.000000000   29.798285721   -0.185517067
 -24521.500000000   30.075682381   -0.184346792
 -24520.000000000   30.351330992   -0.183186307
 -24518.500000000   30.625246107   -0.182035433
 -24517.000000000   30.897441999   -0.180893975
 -24515.500000000   31.167932637   -0.179761727
 -24514.000000000   31.436731676   -0.178638471
 -24512.500000000   31.703852430   -0.177523975
 -24511.000000000   31.969307862   -0.176418000
 -24509.500000000   32.233110566   -0.175320294
 -24508.000000000   32.495272748   -0.174230595
 -24506.500000000   32.755806218   -0.173148632
 -24505.000000000   33.014722372   -0.172074127
 -24503.500000000   33.272032183   -0.171006791
 -24502.000000000   33.527746183   -0.169946330
 -24500.500000000   33.781874461   -0.168892444
 -24499.000000000   34.034426646   -0.167844822
 -24497.500000000   34.285411904   -0.166803153
 -24496.000000000   34.534838924   -0.165767119
 -24494.500000000   34.782715915   -0.164736395
 -24493.000000000   35.029050601   -0.163710656
 -24491.500000000   35.273850212   -0.162689573
 -24490.000000000   35.517121482   -0.161672813
 -24488.500000000   35.758870646   -0.160660043
 -24487.000000000   35.999103437   -0.159650927
 -24485.500000000   36.237825086   -0.158645129
 -24484.000000000   36.475040317   -0.157642315
 -24482.500000000   36.710753354   -0.156642147
 -24481.000000000   36.944967915   -0.155644293
 -24479.500000000   37.177687222   -0.154648419
 -24478.000000000   37.408913996   -0.153654194
 -24476.500000000   37.638650466   -0.152661292
 -24475.000000000   37.866898371   -0.151669388
 -24473.500000000   38.093658968   -0.150678161
 -24472.000000000   38.318933035   -0.149687295
 -24470.500000000   38.542720880   -0.148696480
 -24469.000000000   38.765022346   -0.147705408
 -24467.500000000   38.985836824   -0.146713779
 -24466.000000000   39.205163259   -0.145721301
 -24464.500000000   39.423000159   -0.144727685
 -24463.000000000   39.639345606   -0.143732652
 -24461.500000000   39.854197269   -0.142735929
 -24460.000000000   40.067552414   -0.141737251
 -24458.500000000   40.279407916   -0.140736362
 -24457.000000000   40.489760271   -0.139733015
 -24455.500000000   40.698605613   -0.138726972
 -24454.000000000   40.905939723   -0.137718002
 -24452.500000000   41.111758046   -0.136705887
 -24451.000000000   41.316055705   -0.135690416
 -24449.500000000   41.518827516   -0.134671391
 -24448.000000000   41.720068006   -0.133648622
 -24446.500000000   41.919771422   -0.132621932
 -24445.000000000   42.117931756   -0.131591152
 -24443.500000000   42.314542754   -0.130556126
 -24442.000000000   42.509597939   -0.129516710
 -24440.500000000   42.703090622   -0.128472769
 -24439.000000000   42.895013923   -0.127424182
 -24437.500000000   43.085360787   -0.126370837
 -24436.000000000   43.274124004   -0.125312635
 -24434.500000000   43.461296221   -0.124249490
 -24433.000000000   43.646869966   -0.123181327
 -24431.500000000   43.830837660   -0.122108081
 -24430.000000000   44.013191642   -0.121029701
 -24428.500000000   44.193924177   -0.119946148
 -24427.000000000   44.373027484   -0.118857393
 -24425.500000000   44.550493746   -0.117763420
 -24424.000000000   44.726315132   -0.116664224
 -24422.500000000   44.900483811   -0.115559813
 -24421.000000000   45.072991973   -0.114450206
 -24419.500000000   45.243831844   -0.113335431
 -24418.000000000   45.412995704   -0.112215531
 -24416.500000000   45.580475901   -0.111090558
 -24415.000000000   45.746264872   -0.109960574
 -24413.500000000   45.910355156   -0.108825655
 -24412.000000000   46.072739411   -0.107685884
 -24410.500000000   46.233410429   -0.106541356
 -24409.000000000   46.392361152   -0.105392176
 -24407.500000000   46.549584687   -0.104238458
 -24406.000000000   46.705074319   -0.103080327
 -24404.500000000   46.858823529   -0.101917916
 -24403.000000000   47.010826000   -0.100751368
 -24401.500000000   47.161075640   -0.099580834
 -24400.000000000   47.309566588   -0.098406473
 -24398.500000000   47.456293228   -0.097228452
 -24397.000000000   47.601250202   -0.096046947
 -24395.500000000   47.744432419   -0.094862141
 -24394.000000000   47.885835069   -0.093674223
 -24392.500000000   48.025453630   -0.092483389
 -24391.000000000   48.163283879   -0.091289841
 -24389.500000000   48.299321901   -0.090093789
 -24388.000000000   48.433564100   -0.088895445
 -24386.500000000   48.566007201   -0.087695030
 -24385.000000000   48.696648264   -0.086492765
 -24383.500000000   48.825484687   -0.085288880
 -24382.000000000   48.952514211   -0.084083607
