#! FIELDS energy b1.bias der_energy
#! SET min_energy -25000
#! SET max_energy -23500
#! SET nbins_energy  1001
#! SET periodic_energy false
 -25000.000000000 -103.709652331   -0.150163444
 -24998.500000000 -103.473449186   -0.164388813
 -24997.000000000 -103.217573767   -0.176437611
 -24995.500000000 -102.945096855   -0.186564643
 -24994.000000000 -102.658724426   -0.195001791
 -24992.500000000 -102.360830798   -0.201959651
 -24991.000000000 -102.053489385   -0.207629078
 -24989.500000000 -101.738501217   -0.212182634
 -24988.000000000 -101.417421338   -0.215775957
 -24986.500000000 -101.091583222   -0.218549045
 -24985.000000000 -100.762121319   -0.220627458
 -24983.500000000 -100.429991850   -0.222123458
 -24982.000000000 -100.095991956   -0.223137062
 -24980.500000000  -99.760777303   -0.223757045
 -24979.000000000  -99.424878246   -0.224061864
 -24977.500000000  -99.088714641   -0.224120537
 -24976.000000000  -98.752609384   -0.223993452
 -24974.500000000  -98.416800785   -0.223733131
 -24973.000000000  -98.081453820   -0.223384938
 -24971.500000000  -97.746670375   -0.222987741
 -24970.000000000  -97.412498516   -0.222574527
 -24968.500000000  -97.078940882   -0.222172975
 -24967.000000000  -96.745962240   -0.221805983
 -24965.500000000  -96.413496280   -0.221492169
 -24964.000000000  -96.081451694   -0.221246320
 -24962.500000000  -95.749717599   -0.221079815
 -24961.000000000  -95.418168351   -0.221001018
 -24959.500000000  -95.086667798   -0.221015635
 -24958.000000000  -94.755073016   -0.221127044
 -24956.500000000  -94.423237565   -0.221336598
 -24955.000000000  -94.091014320   -0.221643906
 -24953.500000000  -93.758257892   -0.222047083
 -24952.000000000  -93.424826688   -0.222542989
 -24950.500000000  -93.090584641   -0.223127433
 -24949.000000000  -92.755402631   -0.223795369
 -24947.500000000  -92.419159642   -0.224541070
 -24946.000000000  -92.081743661   -0.225358280
 -24944.500000000  -91.743052361   -0.226240362
 -24943.000000000  -91.402993585   -0.227180418
 -24941.500000000  -91.061485642   -0.228171403
 -24940.000000000  -90.718457457   -0.229206226
 -24938.500000000  -90.373848574   -0.230277834
 -24937.000000000  -90.027609033   -0.231379293
 -24935.500000000  -89.679699150   -0.232503850
 -24934.000000000  -89.330089195   -0.233644993
 -24932.500000000  -88.978758994   -0.234796500
 -24931.000000000  -88.625697466   -0.235952476
 -24929.500000000  -88.270902105   -0.237107388
 -24928.000000000  -87.914378411   -0.238256095
 -24926.500000000  -87.556139297   -0.239393862
 -24925.000000000  -87.196204458   -0.240516380
 -24923.500000000  -86.834599727   -0.241619773
 -24922.000000000  -86.471356424   -0.242700608
 -24920.500000000  -86.106510687   -0.243755889
 -24919.000000000  -85.740102817   -0.244783062
 -24917.500000000  -85.372176623   -0.245780005
 -24916.000000000  -85.002778773   -0.246745021
 -24914.500000000  -84.631958172   -0.247676826
 -24913.000000000  -84.259765346   -0.248574540
 -24911.500000000  -83.886251852   -0.249437666
 -24910.000000000  -83.511469711   -0.250266077
 -24908.500000000  -83.135470872   -0.251059996
 -24907.000000000  -82.758306695   -0.251819980
 -24905.500000000  -82.380027471   -0.252546896
 -24904.000000000  -82.000681968   -0.253241901
 -24902.500000000  -81.620317015   -0.253906422
 -24901.000000000  -81.238977109   -0.254542136
 -24899.500000000  -80.856704065   -0.255150941
 -24898.000000000  -80.473536691   -0.255734942
 -24896.500000000  -80.089510499   -0.256296425
 -24895.000000000  -79.704657454   -0.256837835
 -24893.500000000  -79.319005741   -0.257361755
 -24892.000000000  -78.932579584   -0.257870887
 -24890.500000000  -78.545399077   -0.258368028
 -24889.000000000  -78.157480060   -0.258856051
 -24887.500000000  -77.768834017   -0.259337889
 -24886.000000000  -77.379468003   -0.259816509
 -24884.500000000  -76.989384603   -0.260294902
 -24883.000000000  -76.598581913   -0.260776060
 -24881.500000000  -76.207053551   -0.261262960
 -24880.000000000  -75.814788686   -0.261758552
 -24878.500000000  -75.421772096   -0.262265741
 -24877.000000000  -75.027984242   -0.262787372
 -24875.500000000  -74.633401370   -0.263326220
 -24874.000000000  -74.237995625   -0.263884977
 -24872.500000000  -73.841735184   -0.264466239
 -24871.000000000  -73.444584408   -0.265072496
 -24869.500000000  -73.046504007   -0.265706125
 -24868.000000000  -72.647451220   -0.266369376
 -24866.500000000  -72.247380006   -0.267064370
 -24865.000000000  -71.846241245   -0.267793089
 -24863.500000000  -71.443982954   -0.268557371
 -24862.000000000  -71.040550506   -0.269358901
 -24860.500000000  -70.635886859   -0.270199212
 -24859.000000000  -70.229932789   -0.271079679
 -24857.500000000  -69.822627134   -0.272001515
 -24856.000000000  -69.413907034   -0.272965767
 -24854.500000000  -69.003708179   -0.273973321
 -24853.000000000  -68.591965058   -0.275024895
 -24851.500000000  -68.178611207   -0.276121039
 -24850.000000000  -67.763579461   -0.277262139
 -24848.500000000  -67.346802199   -0.278448416
 -24847.000000000  -66.928211594   -0.279679926
 -24845.500000000  -66.507739853   -0.280956565
 -24844.000000000  -66.085319463   -0.282278069
 -24842.500000000  -65.660883421   -0.283644018
 -24841.000000000  -65.234365470   -0.285053840
 -24839.500000000  -64.805700323   -0.286506813
 -24838.000000000  -64.374823886   -0.288002071
 -24836.500000000  -63.941673468   -0.289538609
 -24835.000000000  -63.506187987   -0.291115286
 -24833.500000000  -63.068308174   -0.292730830
 -24832.000000000  -62.627976759   -0.294383846
 -24830.500000000  -62.185138656   -0.296072819
 -24829.000000000  -61.739741137   -0.297796121
 -24827.500000000  -61.291733994   -0.299552019
 -24826.000000000  -60.841069700   -0.301338675
 -24824.500000000  -60.387703551   -0.303154162
 -24823.000000000  -59.931593806   -0.304996460
 -24821.500000000  -59.472701813   -0.306863471
 -24820.000000000  -59.010992123   -0.308753020
 -24818.500000000  -58.546432605   -0.310662864
 -24817.000000000  -58.078994534   -0.312590701
 -24815.500000000  -57.608652685   -0.314534170
 -24814.000000000  -57.135385411   -0.316490864
 -24812.500000000  -56.659174704   -0.318458335
 -24811.000000000  -56.180006258   -0.320434099
 -24809.500000000  -55.697869516   -0.322415643
 -24808.000000000  -55.212757706   -0.324400432
 -24806.500000000  -54.724667873   -0.326385915
 -24805.000000000  -54.233600893   -0.328369533
 -24803.500000000  -53.739561490   -0.330348720
 -24802.000000000  -53.242558230   -0.332320915
 -24800.500000000  -52.742603519   -0.334283563
 -24799.000000000  -52.239713584   -0.336234126
 -24797.500000000  -51.733908445   -0.338170082
 -24796.000000000  -51.225211891   -0.340088933
 -24794.500000000  -50.713651431   -0.341988214
 -24793.000000000  -50.199258251   -0.343865492
 -24791.500000000  -49.682067155   -0.345718372
 -24790.000000000  -49.162116507   -0.347544506
 -24788.500000000  -48.639448161   -0.349341592
 -24787.000000000  -48.114107382   -0.351107379
 -24785.500000000  -47.586142772   -0.352839674
 -24784.000000000  -47.055606175   -0.354536343
 -24782.500000000  -46.522552594   -0.356195314
 -24781.000000000  -45.987040085   -0.357814584
 -24779.500000000  -45.449129662   -0.359392216
 -24778.000000000  -44.908885189   -0.360926347
 -24776.500000000  -44.366373268   -0.362415189
 -24775.000000000  -43.821663125   -0.363857029
 -24773.500000000  -43.274826498   -0.365250236
 -24772.000000000  -42.725937511   -0.366593258
 -24770.500000000  -42.175072553   -0.367884626
 -24769.000000000  -41.622310153   -0.369122956
 -24767.500000000  -41.067730855   -0.370306949
 -24766.000000000  -40.511417084   -0.371435392
 -24764.500000000  -39.953453019   -0.372507160
 -24763.000000000  -39.393924461   -0.373521217
 -24761.500000000  -38.832918700   -0.374476614
 -24760.000000000  -38.270524382   -0.375372491
 -24758.500000000  -37.706831374   -0.376208078
 -24757.000000000  -37.141930634   -0.376982694
 -24755.500000000  -36.575914077   -0.377695744
 -24754.000000000  -36.008874440   -0.378346724
 -24752.500000000  -35.440905152   -0.378935215
 -24751.000000000  -34.872100205   -0.379460888
 -24749.500000000  -34.302554022   -0.379923496
 -24748.000000000  -33.732361331   -0.380322880
 -24746.500000000  -33.161617035   -0.380658962
 -24745.000000000  -32.590416093   -0.380931749
 -24743.500000000  -32.018853394   -0.381141326
 -24742.000000000  -31.447023639   -0.381287858
 -24740.500000000  -30.875021222   -0.381371589
 -24739.000000000  -30.302940116   -0.381392836
 -24737.500000000  -29.730873760   -0.381351993
 -24736.000000000  -29.158914952   -0.381249522
 -24734.500000000  -28.587155741   -0.381085959
 -24733.000000000  -28.015687324   -0.380861902
 -24731.500000000  -27.444599948   -0.380578020
 -24730.000000000  -26.873982814   -0.380235040
 -24728.500000000  -26.303923983   -0.379833753
 -24727.000000000  -25.734510285   -0.379375006
 -24725.500000000  -25.165827242   -0.378859703
 -24724.000000000  -24.597958977   -0.378288799
 -24722.500000000  -24.030988142   -0.377663302
 -24721.000000000  -23.464995842   -0.376984265
 -24719.500000000  -22.900061568   -0.376252788
 -24718.000000000  -22.336263127   -0.375470014
 -24716.500000000  -21.773676584   -0.374637124
 -24715.000000000  -21.212376203   -0.373755338
 -24713.500000000  -20.652434393   -0.372825908
 -24712.000000000  -20.093921657   -0.371850121
 -24710.500000000  -19.536906551   -0.370829291
 -24709.000000000  -18.981455636   -0.369764758
 -24707.500000000  -18.427633445   -0.368657887
 -24706.000000000  -17.875502450   -0.367510064
 -24704.500000000  -17.325123027   -0.366322693
 -24703.000000000  -16.776553436   -0.365097193
 -24701.500000000  -16.229849796   -0.363834998
 -24700.000000000  -15.685066068   -0.362537552
 -24698.500000000  -15.142254039   -0.361206308
 -24697.000000000  -14.601463314   -0.359842723
 -24695.500000000  -14.062741309   -0.358448260
 -24694.000000000  -13.526133243   -0.357024381
 -24692.500000000  -12.991682144   -0.355572547
 -24691.000000000  -12.459428850   -0.354094218
 -24689.500000000  -11.929412013   -0.352590845
 -24688.000000000  -11.401668113   -0.351063874
 -24686.500000000  -10.876231472   -0.349514740
 -24685.000000000  -10.353134264   -0.347944865
 -24683.500000000   -9.832406541   -0.346355661
 -24682.000000000   -9.314076250   -0.344748520
 -24680.500000000   -8.798169262   -0.343124819
 -24679.000000000   -8.284709394   -0.341485917
 -24677.500000000   -7.773718444   -0.339833149
 -24676.000000000   -7.265216221   -0.338167831
 -24674.500000000   -6.759220581   -0.336491253
 -24673.000000000   -6.255747459   -0.334804681
 -24671.500000000   -5.754810916   -0.333109353
 -24670.000000000   -5.256423171   -0.331406481
 -24668.500000000   -4.760594652   -0.329697247
 -24667.000000000   -4.267334034   -0.327982803
 -24665.500000000   -3.776648288   -0.326264269
 -24664.000000000   -3.288542727   -0.324542733
 -24662.500000000   -2.803021060   -0.322819252
 -24661.000000000   -2.320085433   -0.321094846
 -24659.500000000   -1.839736488   -0.319370503
 -24658.000000000   -1.361973415   -0.317647174
 -24656.500000000   -0.886794000   -0.315925775
 -24655.000000000   -0.414194684   -0.314207185
 -24653.500000000    0.055829383   -0.312492247
 -24652.000000000    0.523284287   -0.310781766
 -24650.500000000    0.988177295   -0.309076510
 -24649.000000000    1.450516796   -0.307377210
 -24647.500000000    1.910312248   -0.305684557
 -24646.000000000    2.367574118   -0.303999205
 -24644.500000000    2.822313825   -0.302321773
 -24643.000000000    3.274543685   -0.300652836
 -24641.500000000    3.724276853   -0.298992937
 -24640.000000000    4.171527267   -0.297342578
 -24638.500000000    4.616309591   -0.295702225
 -24637.000000000    5.058639160   -0.294072306
 -24635.500000000    5.498531921   -0.292453211
 -24634.000000000    5.936004385   -0.290845297
 -24632.500000000    6.371073564   -0.289248882
 -24631.000000000    6.803756923   -0.287664250
 -24629.500000000    7.234072329   -0.286091648
 -24628.000000000    7.662037990   -0.284531291
 -24626.500000000    8.087672415   -0.282983359
 -24625.000000000    8.510994354   -0.281447999
 -24623.500000000    8.932022756   -0.279925326
 -24622.000000000    9.350776717   -0.278415422
 -24620.500000000    9.767275435   -0.276918341
 -24619.000000000   10.181538161   -0.275434103
 -24617.500000000   10.593584161   -0.273962701
 -24616.000000000   11.003432666   -0.272504101
 -24614.500000000   11.411102835   -0.271058239
 -24613.000000000   11.816613710   -0.269625026
 -24611.500000000   12.219984181   -0.268204347
 -24610.000000000   12.621232947   -0.266796061
 -24608.500000000   13.020378481   -0.265400007
 -24607.000000000   13.417438991   -0.264015997
 -24605.500000000   13.812432392   -0.262643825
 -24604.000000000   14.205376271   -0.261283263
 -24602.500000000   14.596287861   -0.259934062
 -24601.000000000   14.985184007   -0.258595958
 -24599.500000000   15.372081143   -0.257268667
 -24598.000000000   15.756995265   -0.255951889
 -24596.500000000   16.139941910   -0.254645310
 -24595.000000000   16.520936129   -0.253348599
 -24593.500000000   16.899992471   -0.252061416
 -24592.000000000   17.277124963   -0.250783405
 -24590.500000000   17.652347091   -0.249514202
 -24589.000000000   18.025671785   -0.248253431
 -24587.500000000   18.397111407   -0.247000707
 -24586.000000000   18.766677735   -0.245755640
 -24584.500000000   19.134381955   -0.244517829
 -24583.000000000   19.500234649   -0.243286871
 -24581.500000000   19.864245788   -0.242062355
 -24580.000000000   20.226424727   -0.240843868
 -24578.500000000   20.586780198   -0.239630993
 -24577.000000000   20.945320305   -0.238423314
 -24575.500000000   21.302052526   -0.237220409
 -24574.000000000   21.656983710   -0.236021860
 -24572.500000000   22.010120076   -0.234827249
 -24571.000000000   22.361467216   -0.233636157
 -24569.500000000   22.711030101   -0.232448172
 -24568.000000000   23.058813080   -0.231262882
 -24566.500000000   23.404819891   -0.230079880
 -24565.000000000   23.749053663   -0.228898764
 -24563.500000000   24.091516927   -0.227719138
 -24562.000000000   24.432211626   -0.226540612
 -24560.500000000   24.771139121   -0.225362802
 -24559.000000000   25.108300204   -0.224185335
 -24557.500000000   25.443695114   -0.223007843
 -24556.000000000   25.777323543   -0.221829969
 -24554.500000000   26.109184655   -0.220651364
 -24553.000000000   26.439277100   -0.219471690
 -24551.500000000   26.767599028   -0.218290620
 -24550.000000000   27.094148105   -0.217107838
 -24548.500000000   27.418921532   -0.215923038
 -24547.000000000   27.741916063   -0.214735928
 -24545.500000000   28.063128020   -0.213546227
 -24544.000000000   28.382553316   -0.212353669
 -24542.500000000   28.700187469   -0.211157997
 -24541.000000000   29.016025630   -0.209958971
 -24539.500000000   29.330062593   -0.208756364
 -24538.000000000   29.642292825   -0.207549962
 -24536.500000000   29.952710481   -0.206339565
 -24535.000000000   30.261309430   -0.205124988
 -24533.500000000   30.568083269   -0.203906060
 -24532.000000000   30.873025355   -0.202682625
 -24530.500000000   31.176128818   -0.201454541
 -24529.000000000   31.477386589   -0.200221681
 -24527.500000000   31.776791416   -0.198983933
 -24526.000000000   32.074335894   -0.197741200
 -24524.500000000   32.370012481   -0.196493398
 -24523.000000000   32.663813521   -0.195240461
 -24521.500000000   32.955731267   -0.193982333
 -24520.000000000   33.245757906   -0.192718977
 -24518.500000000   33.533885572   -0.191450368
 -24517.000000000   33.820106378   -0.190176495
 -24515.500000000   34.104412429   -0.188897363
 -24514.000000000   34.386795846   -0.187612989
 -24512.500000000   34.667248789   -0.186323403
 -24511.000000000   34.945763472   -0.185028651
 -24509.500000000   35.222332188   -0.183728791
 -24508.000000000   35.496947326   -0.182423893
 -24506.500000000   35.769601390   -0.181114041
 -24505.000000000   36.040287019   -0.179799329
 -24503.500000000   36.308997002   -0.178479866
 -24502.000000000   36.575724301   -0.177155771
 -24500.500000000   36.840462063   -0.175827173
 -24499.000000000   37.103203639   -0.174494214
 -24497.500000000   37.363942600   -0.173157045
 -24496.000000000   37.622672751   -0.171815828
 -24494.500000000   37.879388146   -0.170470734
 -24493.000000000   38.134083105   -0.169121944
 -24491.500000000   38.386752224   -0.167769646
 -24490.000000000   38.637390387   -0.166414037
 -24488.500000000   38.885992782   -0.165055324
 -24487.000000000   39.132554911   -0.163693718
 -24485.500000000   39.377072599   -0.162329439
 -24484.000000000   39.619542005   -0.160962713
 -24482.500000000   39.859959631   -0.159593772
 -24481.000000000   40.098322332   -0.158222853
 -24479.500000000   40.334627322   -0.156850199
 -24478.000000000   40.568872184   -0.155476055
 -24476.500000000   40.801054870   -0.154100674
 -24475.000000000   41.031173714   -0.152724309
 -24473.500000000   41.259227433   -0.151347217
 -24472.000000000   41.485215131   -0.149969658
 -24470.500000000   41.709136305   -0.148591894
 -24469.000000000   41.930990843   -0.147214188
 -24467.500000000   42.150779031   -0.145836805
 -24466.000000000   42.368501551   -0.144460009
 -24464.500000000   42.584159483   -0.143084065
 -24463.000000000   42.797754304   -0.141709238
 -24461.500000000   43.009287886   -0.140335791
 -24460.000000000   43.218762499   -0.138963988
 -24458.500000000   43.426180802   -0.137594088
 -24457.000000000   43.631545844   -0.136226351
 -24455.500000000   43.834861063   -0.134861031
 -24454.000000000   44.036130274   -0.133498383
 -24452.500000000   44.235357673   -0.132138656
 -24451.000000000   44.432547824   -0.130782094
 -24449.500000000   44.627705659   -0.129428940
 -24448.000000000   44.820836467   -0.128079430
 -24446.500000000   45.011945887   -0.126733796
 -24445.000000000   45.201039906   -0.125392264
 -24443.500000000   45.388124842   -0.124055056
 -24442.000000000   45.573207342   -0.122722385
 -24440.500000000   45.756294370   -0.121394461
 -24439.000000000   45.937393198   -0.120071485
 -24437.500000000   46.116511395   -0.118753652
 -24436.000000000   46.293656819   -0.117441150
 -24434.500000000   46.468837600   -0.116134159
 -24433.000000000   46.642062138   -0.114832853
 -24431.500000000   46.813339083   -0.113537395
 -24430.000000000   46.982677326   -0.112247943
 -24428.500000000   47.150085990   -0.110964646
 -24427.000000000   47.315574410   -0.109687642
 -24425.500000000   47.479152130   -0.108417065
 -24424.000000000   47.640828879   -0.107153036
 -24422.500000000   47.800614568   -0.105895669
 -24421.000000000   47.958519269   -0.104645068
 -24419.500000000   48.114553205   -0.103401331
 -24418.000000000   48.268726736   -0.102164542
 -24416.500000000   48.421050345   -0.100934780
 -24415.000000000   48.571534624   -0.099712112
 -24413.500000000   48.720190259   -0.098496598
 -24412.000000000   48.867028018   -0.097288285
 -24410.500000000   49.012058735   -0.096087214
 -24409.000000000   49.155293298   -0.094893417
 -24407.500000000   49.296742632   -0.093706913
 -24406.000000000   49.436417690   -0.092527715
 -24404.500000000   49.574329433   -0.091355827
 -24403.000000000   49.710488822   -0.090191241
 -24401.500000000   49.844906801   -0.089033943
 -24400.000000000   49.977594283   -0.087883908
 -24398.500000000   50.108562139   -0.086741102
 -24397.000000000   50.237821184   -0.085605486
 -24395.500000000   50.365382165   -0.084477007
 -24394.000000000   50.491255745   -0.083355607
 -24392.500000000   50.615452493   -0.082241220
 -24391.000000000   50.737982874   -0.081133771
 -24389.500000000   50.858857233   -0.080033175
 -24388.000000000   50.978085783   -0.078939344
 -24386.500000000   51.095678598   -0.077852179
 -24385.000000000   51.211645600   -0.076771574
 -24383.500000000   51.325996546   -0.075697419
 -24382.000000000   51.438741020   -0.074629592
