#! FIELDS energy b1.bias der_energy
#! SET min_energy -25000
#! SET max_energy -23500
#! SET nbins_energy  1001
#! SET periodic_energy false
 -25000.000000000 -102.238971867   -0.216775541
 -24998.500000000 -101.917001628   -0.212719766
 -24997.000000000 -101.600251247   -0.209787224
 -24995.500000000 -101.287159826   -0.207815488
 -24994.000000000 -100.976397646   -0.206658532
 -24992.500000000 -100.666842512   -0.206185479
 -24991.000000000 -100.357557921   -0.206279430
 -24989.500000000 -100.047772934   -0.206836353
 -24988.000000000  -99.736863652   -0.207764058
 -24986.500000000  -99.424336198   -0.208981218
 -24985.000000000  -99.109811104   -0.210416468
 -24983.500000000  -98.793009017   -0.212007549
 -24982.000000000  -98.473737636   -0.213700522
 -24980.500000000  -98.151879803   -0.215449019
 -24979.000000000  -97.827382665   -0.217213553
 -24977.500000000  -97.500247842   -0.218960878
 -24976.000000000  -97.170522527   -0.220663381
 -24974.500000000  -96.838291451   -0.222298532
 -24973.000000000  -96.503669661   -0.223848359
 -24971.500000000  -96.166796041   -0.225298973
 -24970.000000000  -95.827827529   -0.226640120
 -24968.500000000  -95.486933979   -0.227864767
 -24967.000000000  -95.144293612   -0.228968729
 -24965.500000000  -94.800089018   -0.229950311
 -24964.000000000  -94.454503662   -0.230809991
 -24962.500000000  -94.107718848   -0.231550120
 -24961.000000000  -93.759911122   -0.232174654
 -24959.500000000  -93.411250049   -0.232688901
 -24958.000000000  -93.061896359   -0.233099300
 -24956.500000000  -92.712000407   -0.233413210
 -24955.000000000  -92.361700937   -0.233638724
 -24953.500000000  -92.011124109   -0.233784503
 -24952.000000000  -91.660382765   -0.233859617
 -24950.500000000  -91.309575920   -0.233873412
 -24949.000000000  -90.958788440   -0.233835386
 -24947.500000000  -90.608090900   -0.233755081
 -24946.000000000  -90.257539592   -0.233641982
 -24944.500000000  -89.907176674   -0.233505437
 -24943.000000000  -89.557030435   -0.233354577
 -24941.500000000  -89.207115667   -0.233198258
 -24940.000000000  -88.857434125   -0.233044998
 -24938.500000000  -88.507975066   -0.232902937
 -24937.000000000  -88.158715849   -0.232779791
 -24935.500000000  -87.809622593   -0.232682828
 -24934.000000000  -87.460650873   -0.232618833
 -24932.500000000  -87.111746454   -0.232594098
 -24931.000000000  -86.762846050   -0.232614401
 -24929.500000000  -86.413878095   -0.232684999
 -24928.000000000  -86.064763532   -0.232810624
 -24926.500000000  -85.715416598   -0.232995483
 -24925.000000000  -85.365745616   -0.233243258
 -24923.500000000  -85.015653775   -0.233557115
 -24922.000000000  -84.665039894   -0.233939711
 -24920.500000000  -84.313799183   -0.234393209
 -24919.000000000  -83.961823971   -0.234919286
 -24917.500000000  -83.609004423   -0.235519154
 -24916.000000000  -83.255229224   -0.236193577
 -24914.500000000  -82.900386243   -0.236942884
 -24913.000000000  -82.544363163   -0.237766997
 -24911.500000000  -82.187048078   -0.238665446
 -24910.000000000  -81.828330069   -0.239637394
 -24908.500000000  -81.468099735   -0.240681656
 -24907.000000000  -81.106249694   -0.241796724
 -24905.500000000  -80.742675058   -0.242980792
 -24904.000000000  -80.377273858   -0.244231772
 -24902.500000000  -80.009947453   -0.245547323
 -24901.000000000  -79.640600886   -0.246924874
 -24899.500000000  -79.269143221   -0.248361640
 -24898.000000000  -78.895487839   -0.249854654
 -24896.500000000  -78.519552702   -0.251400778
 -24895.000000000  -78.141260586   -0.252996736
 -24893.500000000  -77.760539279   -0.254639122
 -24892.000000000  -77.377321756   -0.256324432
 -24890.500000000  -76.991546315   -0.258049075
 -24889.000000000  -76.603156691   -0.259809397
 -24887.500000000  -76.212102136   -0.261601695
 -24886.000000000  -75.818337484   -0.263422236
 -24884.500000000  -75.421823177   -0.265267277
 -24883.000000000  -75.022525277   -0.267133072
 -24881.500000000  -74.620415449   -0.269015895
 -24880.000000000  -74.215470928   -0.270912050
 -24878.500000000  -73.807674461   -0.272817884
 -24877.000000000  -73.397014234   -0.274729803
 -24875.500000000  -72.983483777   -0.276644276
 -24874.000000000  -72.567081856   -0.278557852
 -24872.500000000  -72.147812352   -0.280467169
 -24871.000000000  -71.725684116   -0.282368957
 -24869.500000000  -71.300710826   -0.284260056
 -24868.000000000  -70.872910820   -0.286137413
 -24866.500000000  -70.442306925   -0.287998096
 -24865.000000000  -70.008926276   -0.289839295
 -24863.500000000  -69.572800125   -0.291658329
 -24862.000000000  -69.133963647   -0.293452651
 -24860.500000000  -68.692455736   -0.295219850
 -24859.000000000  -68.248318798   -0.296957654
 -24857.500000000  -67.801598540   -0.298663933
 -24856.000000000  -67.352343756   -0.300336702
 -24854.500000000  -66.900606112   -0.301974118
 -24853.000000000  -66.446439930   -0.303574484
 -24851.500000000  -65.989901964   -0.305136248
 -24850.000000000  -65.531051193   -0.306658002
 -24848.500000000  -65.069948597   -0.308138483
 -24847.000000000  -64.606656946   -0.309576567
 -24845.500000000  -64.141240589   -0.310971272
 -24844.000000000  -63.673765244   -0.312321754
 -24842.500000000  -63.204297796   -0.313627303
 -24841.000000000  -62.732906093   -0.314887341
 -24839.500000000  -62.259658754   -0.316101421
 -24838.000000000  -61.784624973   -0.317269219
 -24836.500000000  -61.307874340   -0.318390534
 -24835.000000000  -60.829476658   -0.319465280
 -24833.500000000  -60.349501771   -0.320493487
 -24832.000000000  -59.868019400   -0.321475292
 -24830.500000000  -59.385098977   -0.322410937
 -24829.000000000  -58.900809501   -0.323300761
 -24827.500000000  -58.415219387   -0.324145201
 -24826.000000000  -57.928396330   -0.324944780
 -24824.500000000  -57.440407176   -0.325700106
 -24823.000000000  -56.951317796   -0.326411867
 -24821.500000000  -56.461192977   -0.327080825
 -24820.000000000  -55.970096308   -0.327707810
 -24818.500000000  -55.478090087   -0.328293716
 -24817.000000000  -54.985235225   -0.328839494
 -24815.500000000  -54.491591165   -0.329346151
 -24814.000000000  -53.997215807   -0.329814738
 -24812.500000000  -53.502165437   -0.330246354
 -24811.000000000  -53.006494667   -0.330642130
 -24809.500000000  -52.510256383   -0.331003235
 -24808.000000000  -52.013501699   -0.331330864
 -24806.500000000  -51.516279920   -0.331626235
 -24805.000000000  -51.018638505   -0.331890586
 -24803.500000000  -50.520623048   -0.332125167
 -24802.000000000  -50.022277258   -0.332331241
 -24800.500000000  -49.523642947   -0.332510073
 -24799.000000000  -49.024760025   -0.332662933
 -24797.500000000  -48.525666503   -0.332791085
 -24796.000000000  -48.026398495   -0.332895789
 -24794.500000000  -47.526990235   -0.332978294
 -24793.000000000  -47.027474094   -0.333039836
 -24791.500000000  -46.527880600   -0.333081632
 -24790.000000000  -46.028238470   -0.333104883
 -24788.500000000  -45.528574637   -0.333110763
 -24787.000000000  -45.028914292   -0.333100421
 -24785.500000000  -44.529280924   -0.333074979
 -24784.000000000  -44.029696361   -0.333035526
 -24782.500000000  -43.530180823   -0.332983119
 -24781.000000000  -43.030752971   -0.332918778
 -24779.500000000  -42.531429962   -0.332843488
 -24778.000000000  -42.032227508   -0.332758192
 -24776.500000000  -41.533159936   -0.332663794
 -24775.000000000  -41.034240247   -0.332561154
 -24773.500000000  -40.535480186   -0.332451089
 -24772.000000000  -40.036890304   -0.332334373
 -24770.500000000  -39.538480028   -0.332211732
 -24769.000000000  -39.040257729   -0.332083846
 -24767.500000000  -38.542230795   -0.331951348
 -24766.000000000  -38.044405696   -0.331814825
 -24764.500000000  -37.546788064   -0.331674813
 -24763.000000000  -37.049382757   -0.331531801
 -24761.500000000  -36.552193938   -0.331386232
 -24760.000000000  -36.055225143   -0.331238498
 -24758.500000000  -35.558479354   -0.331088944
 -24757.000000000  -35.061959072   -0.330937867
 -24755.500000000  -34.565666388   -0.330785518
 -24754.000000000  -34.069603052   -0.330632100
 -24752.500000000  -33.573770542   -0.330477772
 -24751.000000000  -33.078170133   -0.330322646
 -24749.500000000  -32.582802967   -0.330166790
 -24748.000000000  -32.087670114   -0.330010230
 -24746.500000000  -31.592772636   -0.329852949
 -24745.000000000  -31.098111656   -0.329694888
 -24743.500000000  -30.603688410   -0.329535950
 -24742.000000000  -30.109504312   -0.329375999
 -24740.500000000  -29.615561007   -0.329214861
 -24739.000000000  -29.121860427   -0.329052327
 -24737.500000000  -28.628404846   -0.328888154
 -24736.000000000  -28.135196924   -0.328722066
 -24734.500000000  -27.642239759   -0.328553756
 -24733.000000000  -27.149536934   -0.328382888
 -24731.500000000  -26.657092555   -0.328209098
 -24730.000000000  -26.164911295   -0.328031996
 -24728.500000000  -25.672998430   -0.327851168
 -24727.000000000  -25.181359874   -0.327666176
 -24725.500000000  -24.690002213   -0.327476563
 -24724.000000000  -24.198932734   -0.327281852
 -24722.500000000  -23.708159453   -0.327081550
 -24721.000000000  -23.217691136   -0.326875146
 -24719.500000000  -22.727537325   -0.326662119
 -24718.000000000  -22.237708357   -0.326441933
 -24716.500000000  -21.748215376   -0.326214044
 -24715.000000000  -21.259070353   -0.325977898
 -24713.500000000  -20.770286090   -0.325732936
 -24712.000000000  -20.281876235   -0.325478593
 -24710.500000000  -19.793855285   -0.325214301
 -24709.000000000  -19.306238590   -0.324939492
 -24707.500000000  -18.819042353   -0.324653596
 -24706.000000000  -18.332283630   -0.324356046
 -24704.500000000  -17.845980325   -0.324046279
 -24703.000000000  -17.360151183   -0.323723735
 -24701.500000000  -16.874815784   -0.323387863
 -24700.000000000  -16.389994531   -0.323038117
 -24698.500000000  -15.905708637   -0.322673964
 -24697.000000000  -15.421980107   -0.322294877
 -24695.500000000  -14.938831728   -0.321900345
 -24694.000000000  -14.456287044   -0.321489869
 -24692.500000000  -13.974370338   -0.321062962
 -24691.000000000  -13.493106607   -0.320619157
 -24689.500000000  -13.012521542   -0.320158001
 -24688.000000000  -12.532641498   -0.319679058
 -24686.500000000  -12.053493470   -0.319181913
 -24685.000000000  -11.575105059   -0.318666169
 -24683.500000000  -11.097504450   -0.318131451
 -24682.000000000  -10.620720371   -0.317577404
 -24680.500000000  -10.144782069   -0.317003695
 -24679.000000000   -9.669719271   -0.316410016
 -24677.500000000   -9.195562151   -0.315796079
 -24676.000000000   -8.722341295   -0.315161623
 -24674.500000000   -8.250087662   -0.314506410
 -24673.000000000   -7.778832551   -0.313830227
 -24671.500000000   -7.308607560   -0.313132887
 -24670.000000000   -6.839444550   -0.312414228
 -24668.500000000   -6.371375603   -0.311674115
 -24667.000000000   -5.904432986   -0.310912438
 -24665.500000000   -5.438649113   -0.310129113
 -24664.000000000   -4.974056499   -0.309324085
 -24662.500000000   -4.510687726   -0.308497321
 -24661.000000000   -4.048575404   -0.307648820
 -24659.500000000   -3.587752126   -0.306778602
 -24658.000000000   -3.128250433   -0.305886716
 -24656.500000000   -2.670102774   -0.304973239
 -24655.000000000   -2.213341464   -0.304038269
 -24653.500000000   -1.757998651   -0.303081933
 -24652.000000000   -1.304106272   -0.302104384
 -24650.500000000   -0.851696019   -0.301105796
 -24649.000000000   -0.400799301   -0.300086372
 -24647.500000000    0.048552792   -0.299046337
 -24646.000000000    0.496329527   -0.297985938
 -24644.500000000    0.942500561   -0.296905448
 -24643.000000000    1.387035974   -0.295805161
 -24641.500000000    1.829906304   -0.294685393
 -24640.000000000    2.271082580   -0.293546481
 -24638.500000000    2.710536353   -0.292388782
 -24637.000000000    3.148239723   -0.291212676
 -24635.500000000    3.584165373   -0.290018557
 -24634.000000000    4.018286596   -0.288806842
 -24632.500000000    4.450577318   -0.287577964
 -24631.000000000    4.881012130   -0.286332371
 -24629.500000000    5.309566307   -0.285070530
 -24628.000000000    5.736215835   -0.283792921
 -24626.500000000    6.160937433   -0.282500039
 -24625.000000000    6.583708569   -0.281192392
 -24623.500000000    7.004507486   -0.279870501
 -24622.000000000    7.423313217   -0.278534899
 -24620.500000000    7.840105599   -0.277186128
 -24619.000000000    8.254865294   -0.275824742
 -24617.500000000    8.667573797   -0.274451301
 -24616.000000000    9.078213454   -0.273066375
 -24614.500000000    9.486767468   -0.271670541
 -24613.000000000    9.893219914   -0.270264381
 -24611.500000000   10.297555743   -0.268848483
 -24610.000000000   10.699760789   -0.267423437
 -24608.500000000   11.099821779   -0.265989840
 -24607.000000000   11.497726331   -0.264548287
 -24605.500000000   11.893462962   -0.263099378
 -24604.000000000   12.287021087   -0.261643712
 -24602.500000000   12.678391017   -0.260181885
 -24601.000000000   13.067563962   -0.258714497
 -24599.500000000   13.454532025   -0.257242142
 -24598.000000000   13.839288199   -0.255765410
 -24596.500000000   14.221826362   -0.254284891
 -24595.000000000   14.602141271   -0.252801168
 -24593.500000000   14.980228552   -0.251314817
 -24592.000000000   15.356084695   -0.249826410
 -24590.500000000   15.729707038   -0.248336512
 -24589.000000000   16.101093762   -0.246845677
 -24587.500000000   16.470243874   -0.245354454
 -24586.000000000   16.837157198   -0.243863380
 -24584.500000000   17.201834354   -0.242372985
 -24583.000000000   17.564276750   -0.240883784
 -24581.500000000   17.924486558   -0.239396285
 -24580.000000000   18.282466703   -0.237910982
 -24578.500000000   18.638220841   -0.236428355
 -24577.000000000   18.991753342   -0.234948875
 -24575.500000000   19.343069267   -0.233472996
 -24574.000000000   19.692174350   -0.232001158
 -24572.500000000   20.039074976   -0.230533789
 -24571.000000000   20.383778158   -0.229071300
 -24569.500000000   20.726291514   -0.227614087
 -24568.000000000   21.066623247   -0.226162530
 -24566.500000000   21.404782114   -0.224716993
 -24565.000000000   21.740777411   -0.223277825
 -24563.500000000   22.074618939   -0.221845356
 -24562.000000000   22.406316985   -0.220419899
 -24560.500000000   22.735882292   -0.219001753
 -24559.000000000   23.063326039   -0.217591196
 -24557.500000000   23.388659806   -0.216188490
 -24556.000000000   23.711895556   -0.214793879
 -24554.500000000   24.033045603   -0.213407589
 -24553.000000000   24.352122588   -0.212029829
 -24551.500000000   24.669139451   -0.210660789
 -24550.000000000   24.984109402   -0.209300641
 -24548.500000000   25.297045899   -0.207949541
 -24547.000000000   25.607962616   -0.206607623
 -24545.500000000   25.916873419   -0.205275008
 -24544.000000000   26.223792341   -0.203951795
 -24542.500000000   26.528733548   -0.202638069
 -24541.000000000   26.831711323   -0.201333894
 -24539.500000000   27.132740031   -0.200039320
 -24538.000000000   27.431834098   -0.198754377
 -24536.500000000   27.729007986   -0.197479081
 -24535.000000000   28.024276162   -0.196213428
 -24533.500000000   28.317653082   -0.194957400
 -24532.000000000   28.609153159   -0.193710963
 -24530.500000000   28.898790743   -0.192474066
 -24529.000000000   29.186580095   -0.191246643
 -24527.500000000   29.472535370   -0.190028614
 -24526.000000000   29.756670586   -0.188819882
 -24524.500000000   30.038999609   -0.187620337
 -24523.000000000   30.319536129   -0.186429856
 -24521.500000000   30.598293640   -0.185248301
 -24520.000000000   30.875285420   -0.184075522
 -24518.500000000   31.150524513   -0.182911356
 -24517.000000000   31.424023709   -0.181755629
 -24515.500000000   31.695795525   -0.180608152
 -24514.000000000   31.965852193   -0.179468730
 -24512.500000000   32.234205637   -0.178337153
 -24511.000000000   32.500867464   -0.177213203
 -24509.500000000   32.765848945   -0.176096652
 -24508.000000000   33.029161001   -0.174987263
 -24506.500000000   33.290814194   -0.173884792
 -24505.000000000   33.550818709   -0.172788984
 -24503.500000000   33.809184349   -0.171699580
 -24502.000000000   34.065920518   -0.170616312
 -24500.500000000   34.321036216   -0.169538906
 -24499.000000000   34.574540029   -0.168467084
 -24497.500000000   34.826440118   -0.167400561
 -24496.000000000   35.076744217   -0.166339048
 -24494.500000000   35.325459623   -0.165282254
 -24493.000000000   35.572593190   -0.164229881
 -24491.500000000   35.818151328   -0.163181632
 -24490.000000000   36.062139997   -0.162137205
 -24488.500000000   36.304564703   -0.161096298
 -24487.000000000   36.545430500   -0.160058608
 -24485.500000000   36.784741982   -0.159023829
 -24484.000000000   37.022503292   -0.157991659
 -24482.500000000   37.258718112   -0.156961794
 -24481.000000000   37.493389675   -0.155933931
 -24479.500000000   37.726520756   -0.154907770
 -24478.000000000   37.958113685   -0.153883011
 -24476.500000000   38.188170344   -0.152859360
 -24475.000000000   38.416692173   -0.151836524
 -24473.500000000   38.643680177   -0.150814212
 -24472.000000000   38.869134930   -0.149792142
 -24470.500000000   39.093056581   -0.148770031
 -24469.000000000   39.315444865   -0.147747605
 -24467.500000000   39.536299104   -0.146724594
 -24466.000000000   39.755618222   -0.145700734
 -24464.500000000   39.973400753   -0.144675768
 -24463.000000000   40.189644847   -0.143649444
 -24461.500000000   40.404348284   -0.142621519
 -24460.000000000   40.617508485   -0.141591756
 -24458.500000000   40.829122520   -0.140559928
 -24457.000000000   41.039187124   -0.139525812
 -24455.500000000   41.247698707   -0.138489198
 -24454.000000000   41.454653368   -0.137449883
 -24452.500000000   41.660046907   -0.136407671
 -24451.000000000   41.863874840   -0.135362378
 -24449.500000000   42.066132412   -0.134313828
 -24448.000000000   42.266814613   -0.133261856
 -24446.500000000   42.465916192   -0.132206307
 -24445.000000000   42.663431671   -0.131147033
 -24443.500000000   42.859355360   -0.130083900
 -24442.000000000   43.053681378   -0.129016783
 -24440.500000000   43.246403659   -0.127945567
 -24439.000000000   43.437515979   -0.126870150
 -24437.500000000   43.627011961   -0.125790437
 -24436.000000000   43.814885101   -0.124706347
 -24434.500000000   44.001128778   -0.123617809
 -24433.000000000   44.185736274   -0.122524763
 -24431.500000000   44.368700788   -0.121427159
 -24430.000000000   44.550015453   -0.120324959
 -24428.500000000   44.729673354   -0.119218136
 -24427.000000000   44.907667542   -0.118106674
 -24425.500000000   45.083991052   -0.116990566
 -24424.000000000   45.258636919   -0.115869818
 -24422.500000000   45.431598194   -0.114744447
 -24421.000000000   45.602867960   -0.113614478
 -24419.500000000   45.772439347   -0.112479948
 -24418.000000000   45.940305548   -0.111340906
 -24416.500000000   46.106459835   -0.110197407
 -24415.000000000   46.270895575   -0.109049521
 -24413.500000000   46.433606242   -0.107897324
 -24412.000000000   46.594585434   -0.106740902
 -24410.500000000   46.753826886   -0.105580354
 -24409.000000000   46.911324484   -0.104415783
 -24407.500000000   47.067072280   -0.103247304
 -24406.000000000   47.221064504   -0.102075041
 -24404.500000000   47.373295577   -0.100899125
 -24403.000000000   47.523760123   -0.099719695
 -24401.500000000   47.672452980   -0.098536900
 -24400.000000000   47.819369217   -0.097350894
 -24398.500000000   47.964504137   -0.096161838
 -24397.000000000   48.107853292   -0.094969904
 -24395.500000000   48.249412496   -0.093775265
 -24394.000000000   48.389177828   -0.092578105
 -24392.500000000   48.527145644   -0.091378611
 -24391.000000000   48.663312589   -0.090176976
 -24389.500000000   48.797675600   -0.088973398
 -24388.000000000   48.930231915   -0.087768082
 -24386.500000000   49.060979081   -0.086561235
 -24385.000000000   49.189914961   -0.085353069
 -24383.500000000   49.317037735   -0.084143798
 -24382.000000000   49.442345913   -0.082933643
